EC-Lab ASCII FILE
Nb header lines : 49                          

Staircase Voltammetry

Run on channel : 2 (SN 7177)
Grouped channel(s) : 2
User : 
CE vs. WE compliance from -10 V to 10 V
Electrode connection : CE to ground
Ewe ctrl range : min = 0.00 V, max = 5.00 V
Acquisition started on : 09/11/2012 12:46:15
Saved on :
	File : 20120911_NCF29_SVtest_02_SV_02.mpr
	Directory : C:\EC-Lab\Data\Elodie\
	Host : USB
Device : VSP (SN 0345)
Address : USB
EC-Lab for windows v10.19 (software)
Internet server v10.19 (firmware)
Command interpretor v10.19 (firmware)
Electrode material : 
Initial state : 
Electrolyte : 
Comments : 
Electrode surface area : 0.001 cm²
Characteristic mass : 0.001 g
Equivalent Weight : 0.000 g/eq.
Density : 0.000 g/cm3
Ei (V)              0.000               
vs.                 Eoc                 
dE (mV)             1.000               
dt (s)              360.0000            
E1 (V)              2.000               
vs.                 Ref                 
Step percent        100                 
N                   1                   
E range min (V)     0.000               
E range max (V)     5.000               
I Range             Auto                
Bandwidth           5                   
E2 (V)              0.001               
vs.                 Ref                 
nc cycles           4                   
Reverse Scan        1                   
Ef (V)              0.000               
vs.                 Eoc                 

mode	ox/red	error	control changes	counter inc.	time/s	control/V	Ewe/V	<I>/mA	cycle number	(Q-Qo)/C	P/W
2	1	0	1	0	12600.1510	0.0738063157	0.0741042271	0.015040475035032461	1	0.00849449914	1.11456279E-006
2	1	0	0	0	12960.1510	0.0748065189	0.0751536712	0.018460175037976458	1	0.0151401618	1.38734993E-006
2	1	0	1	0	13320.1510	0.0758067146	0.0760123059	0.020977545282141186	1	0.0226920787	1.59455158E-006
2	1	0	0	0	13680.1510	0.0768069103	0.0771380737	0.023604672616633279	1	0.0311897602	1.82081897E-006
2	1	0	1	0	14040.1510	0.0778071061	0.0781875178	0.026054839291539456	1	0.0405695029	2.03716331E-006
2	1	0	0	0	14400.1510	0.0788073018	0.0791415572	0.028083743271911488	1	0.0506796502	2.22259109E-006
2	1	0	1	0	14760.1510	0.079807505	0.0801910013	0.030427923623287223	1	0.0616337024	2.44004559E-006
2	1	0	0	0	15120.1510	0.0808077008	0.0811450407	0.03251359706867174	1	0.073338598	2.63831726E-006
2	1	0	1	0	15480.1510	0.0818078965	0.0821563229	0.034526125492043813	1	0.0857680067	2.83653958E-006
2	1	0	0	0	15840.1510	0.0828080922	0.0831294432	0.036657193645193154	1	0.0989645943	3.04729201E-006
2	1	0	1	0	16200.1509	0.0838082954	0.0841788873	0.039113510176415234	1	0.113045454	3.2925318E-006
2	1	0	0	0	16560.1509	0.0848084912	0.0852092505	0.041779566896439829	1	0.128086105	3.56000555E-006
2	1	0	1	0	16920.1509	0.0858086869	0.0860869735	0.044275802488527805	1	0.144025385	3.81156974E-006
2	1	0	0	0	17280.1509	0.0868088827	0.0871364176	0.047110272367844708	1	0.160985082	4.10502025E-006
2	1	0	1	0	17640.1509	0.0878090858	0.0882049426	0.050174808067774634	1	0.179048017	4.42566625E-006
2	1	0	0	0	18000.1509	0.0888092816	0.0892734677	0.053513650628220721	1	0.198312938	4.7773492E-006
2	1	0	1	0	18360.1509	0.0898094773	0.0901893452	0.057239022952730034	1	0.218918979	5.16235013E-006
2	1	0	0	0	18720.1509	0.0908096731	0.0912006274	0.061068440666956159	1	0.240903616	5.56947998E-006
2	1	0	1	0	19080.1509	0.0918098688	0.0921737477	0.065310360633112019	1	0.264415354	6.01990087E-006
2	1	0	1	0	19800.1509	0.0938102677	0.0941772312	0.074754963794375406	1	0.31641975	7.04021568E-006
2	1	0	0	0	20160.1509	0.0948104635	0.0951503515	0.079688525876493888	1	0.345107615	7.58239139E-006
2	1	0	1	0	20520.1509	0.0958106592	0.096066229	0.085249602726673091	1	0.375797451	8.1896078E-006
2	1	0	0	0	20880.1509	0.0968108624	0.0970202684	0.091527795430140224	1	0.408747464	8.88005161E-006
2	1	0	1	0	21240.1509	0.0978110582	0.0980124772	0.098194449863396566	1	0.444097459	9.62428112E-006
2	1	0	0	0	21600.1509	0.0988112539	0.0991000831	0.10488115683654509	1	0.481854677	1.03937309E-005
2	1	0	1	0	21960.1509	0.0998114496	0.100244932	0.11282273411995836	1	0.522470891	1.13099077E-005
2	1	0	0	0	22320.1509	0.100811645	0.101141728	0.12054992399573733	1	0.565868855	1.21926278E-005
2	1	0	1	0	22680.1509	0.101811849	0.102038525	0.13034664150047631	1	0.612793624	1.33003787E-005
2	1	0	0	0	23040.1509	0.102812044	0.103126131	0.13973214978981341	1	0.663097203	1.44100359E-005
2	1	0	1	0	23400.1509	0.10381224	0.104137413	0.15144615818168505	1	0.71761781	1.57712111E-005
2	1	0	0	0	23760.1509	0.104812436	0.105148695	0.16202211672494804	1	0.775945783	1.70364146E-005
2	1	0	1	0	24120.1509	0.105812639	0.106121816	0.17444285144814975	1	0.838745236	1.85121917E-005
2	1	0	0	0	24480.1508	0.106812835	0.107209422	0.18535735068726877	1	0.905473888	1.98720536E-005
2	1	0	1	0	24840.1508	0.10781303	0.108087137	0.19560941694707479	1	0.975893259	2.11428614E-005
2	1	0	0	0	25200.1508	0.108813226	0.109212905	0.20307339253820445	1	1.04899967	2.21782357E-005
2	1	0	1	0	25560.1508	0.109813429	0.110205106	0.21231094886028901	1	1.12543166	2.33977498E-005
2	1	0	0	0	25920.1508	0.110813625	0.111159146	0.21590742140787311	1	1.20315826	2.40000845E-005
2	1	0	1	0	26280.1508	0.111813821	0.112132274	0.21893280039269003	1	1.28197408	2.45494321E-005
2	1	0	0	0	26640.1508	0.112814017	0.113162637	0.21687523361163841	1	1.36004925	2.45421725E-005
2	1	0	1	0	27000.1508	0.113814212	0.11398311	0.21253555900461962	1	1.43656194	2.42254646E-005
2	1	0	0	0	27360.1508	0.114814416	0.115051635	0.20276625639537138	1	1.50955784	2.332859E-005
2	1	0	1	0	27720.1508	0.115814611	0.116139241	0.18892624934523467	1	1.57757127	2.19417507E-005
2	1	0	0	0	28080.1508	0.116814807	0.117131442	0.16814999770774586	1	1.63810527	1.96956516E-005
2	1	0	1	0	28440.1508	0.117815003	0.118199967	0.14316656780307024	1	1.68964529	1.6922284E-005
2	1	0	0	0	28800.1508	0.118815206	0.11923033	0.11560442898917522	1	1.73126292	1.37835541E-005
2	1	0	1	0	29160.1508	0.119815402	0.120127127	0.089449642198557555	1	1.76346469	1.07453288E-005
2	1	0	0	0	29520.1508	0.120815597	0.121195652	0.070682920578732669	1	1.78891063	8.56646238E-006
2	1	0	0	0	30240.1508	0.122815996	0.123141892	0.051059568997772531	1	1.82837844	6.28757198E-006
2	1	0	1	0	30600.1508	0.123816192	0.124153174	0.047483567494470635	1	1.84547257	5.89523552E-006
2	1	0	0	0	30960.1508	0.124816388	0.125145376	0.045368923910024228	1	1.86180532	5.67771121E-006
2	1	0	1	0	31320.1508	0.125816584	0.126061261	0.045255570035404924	1	1.87809741	5.70497423E-006
2	1	0	0	0	31680.1508	0.126816779	0.127110705	0.046151471801716859	1	1.89471197	5.86634633E-006
2	1	0	1	0	32040.1508	0.127816975	0.128217384	0.04702830506401956	1	1.91164207	6.02984619E-006
2	1	0	0	0	32400.1508	0.128817171	0.129171431	0.049379547787679057	1	1.92941868	6.37842686E-006
2	1	0	1	0	32760.1507	0.129817367	0.130239949	0.05275491770184082	1	1.94841051	6.87079773E-006
2	1	0	0	0	33120.1508	0.130817562	0.131136745	0.055875868577868082	1	1.96852577	7.32737954E-006
2	1	0	1	0	33480.1508	0.131817773	0.132205278	0.060377908277304604	1	1.99026191	7.98227848E-006
2	1	0	0	0	33840.1508	0.132817969	0.133197471	0.065535106423389555	1	2.0138545	8.72911005E-006
2	1	0	0	0	34560.1508	0.13481836	0.135067388	0.077443541123337178	1	2.06713891	1.04600967E-005
2	1	0	1	0	34920.1508	0.135818556	0.136097759	0.083677126180736416	1	2.09726262	1.13882697E-005
2	1	0	0	0	35280.1508	0.136818752	0.137185365	0.091466253416169652	1	2.13019037	1.25478309E-005
2	1	0	1	0	35640.1508	0.137818947	0.138139412	0.099699664163601875	1	2.16608238	1.37724528E-005
2	1	0	0	0	36000.1508	0.138819143	0.139207929	0.10747987535158776	1	2.20477509	1.4962051E-005
2	1	0	1	0	36360.1508	0.139819339	0.140123814	0.11725043122178924	1	2.2469852	1.6429578E-005
2	1	0	0	0	36720.1508	0.14081955	0.141249582	0.12496312028224682	1	2.29197192	1.76509893E-005
2	1	0	1	0	37080.1508	0.141819745	0.142070055	0.13453667204873421	1	2.34040523	1.91136332E-005
2	1	0	0	0	37440.1508	0.142819941	0.143253058	0.14414827671229835	1	2.39229846	2.06496807E-005
2	1	0	1	0	37800.1508	0.143820137	0.144092619	0.15117636945367696	1	2.44672203	2.17833986E-005
2	1	0	0	0	38160.1508	0.144820333	0.145237461	0.15890162834820631	1	2.50392652	2.30784699E-005
2	1	0	1	0	38520.1508	0.145820528	0.146210581	0.16538422819539855	1	2.56346488	2.41809248E-005
2	1	0	0	0	38880.1508	0.146820724	0.147260025	0.16910952922465894	1	2.62434435	2.49030727E-005
2	1	0	1	0	39240.1508	0.14782092	0.148252234	0.17185804001984484	1	2.68621325	2.5478339E-005
2	1	0	0	0	39600.1508	0.148821115	0.14914903	0.17266031005567983	1	2.74837089	2.57521187E-005
2	1	0	1	0	39960.1508	0.149821326	0.150045827	0.16902459002963366	1	2.80921984	2.53614344E-005
2	1	0	0	0	40320.1508	0.150821522	0.151038036	0.16325919702812186	1	2.86799312	2.46583477E-005
2	1	0	1	0	40680.1508	0.151821718	0.152068391	0.15433958500170864	1	2.92355537	2.34701729E-005
2	1	0	0	0	41040.1508	0.152821913	0.153136924	0.14091313273380601	1	2.97428417	2.15790042E-005
2	1	0	1	0	41400.1508	0.153822109	0.154205441	0.12700523328731861	1	3.02000594	1.95848988E-005
2	1	0	0	0	41760.1508	0.154822305	0.155178562	0.1117181347554963	1	3.06022453	1.73362587E-005
2	1	0	1	0	42120.1508	0.155822501	0.156132609	0.096461291983185316	1	3.09495068	1.5060753E-005
2	1	0	0	0	42480.1508	0.156822696	0.157239288	0.084171257113706655	1	3.12525225	1.32350287E-005
2	1	0	1	0	42840.1508	0.157822907	0.158193335	0.077185195098059545	1	3.15303898	1.22101837E-005
2	1	0	0	0	43200.1508	0.158823103	0.159204617	0.071921214789497756	1	3.17893052	1.1450189E-005
2	1	0	1	0	43560.1508	0.159823298	0.160177737	0.068721273297106644	1	3.20367026	1.1007618E-005
2	1	0	0	0	43920.1508	0.160823494	0.161074534	0.066923677082007915	1	3.2277627	1.07797005E-005
2	1	0	1	0	44280.1508	0.16182369	0.162219375	0.065698645043060555	1	3.2514143	1.06575935E-005
2	1	0	0	0	44640.1508	0.162823886	0.163230658	0.065237915410730429	1	3.27489996	1.06488278E-005
2	1	0	1	0	45000.1508	0.163824081	0.164127469	0.065068863302512714	1	3.29832482	1.06795878E-005
2	1	0	0	0	45360.1508	0.164824277	0.165119663	0.065214581964489898	1	3.3218019	1.07682099E-005
2	1	0	1	0	45720.1508	0.165824473	0.166169107	0.065456712612402157	1	3.34536648	1.08768836E-005
2	1	0	0	0	46080.1508	0.166824684	0.167180389	0.06593385518976802	1	3.36910248	1.10228475E-005
2	1	0	1	0	46440.1508	0.167824879	0.168153509	0.066431103380622414	1	3.39301777	1.11706231E-005
2	1	0	0	0	46800.1508	0.168825075	0.169202954	0.067310856841966027	1	3.41724968	1.13891956E-005
2	1	0	1	0	47160.1508	0.169825271	0.170118839	0.068081773608202723	1	3.44175911	1.15819921E-005
2	1	0	0	0	47520.1508	0.170825467	0.171206445	0.069106562493106094	1	3.46663761	1.18314892E-005
2	1	0	1	0	47880.1508	0.171825662	0.172160476	0.07007794957095137	1	3.49186563	1.20646528E-005
2	1	0	0	0	48240.1508	0.172825858	0.173248082	0.071026510048233238	1	3.51743507	1.23052068E-005
2	1	0	1	0	48600.1508	0.173826054	0.174259365	0.072125299740822713	1	3.54340029	1.25685092E-005
2	1	0	0	0	48960.1508	0.174826249	0.17517525	0.072917351155941224	1	3.56965041	1.27733156E-005
2	1	0	1	0	49320.1508	0.17582646	0.176224694	0.073602190736544504	1	3.5961473	1.29705231E-005
2	1	0	0	0	49680.1508	0.176826656	0.177274138	0.074213551075619999	1	3.62286425	1.31561437E-005
2	1	0	1	0	50040.1508	0.177826852	0.178190023	0.074820833871124481	1	3.64979959	1.33323265E-005
2	1	0	0	0	50400.1508	0.178827047	0.179124981	0.075053125050427993	1	3.67681885	1.34438897E-005
2	1	0	1	0	50760.1508	0.179827243	0.180117175	0.075416356088183811	1	3.70396876	1.35837809E-005
2	1	0	0	0	51120.1508	0.180827439	0.181281105	0.075147729028103072	1	3.73102188	1.36228637E-005
2	1	0	1	0	51480.1508	0.181827635	0.182177901	0.075012112324506886	1	3.75802612	1.3665549E-005
2	1	0	0	0	51840.1508	0.18282783	0.183227345	0.074732712525948819	1	3.78492999	1.36930767E-005
2	1	0	1	0	52200.1508	0.183828026	0.184219554	0.074687648087685687	1	3.81181765	1.3758925E-005
2	1	0	0	0	52560.1508	0.184828237	0.185211748	0.074456118754380296	1	3.83862162	1.37901479E-005
2	1	0	1	0	52920.1508	0.185828432	0.186203957	0.074176858148380154	1	3.86532545	1.38120249E-005
2	1	0	0	0	53280.1508	0.186828628	0.187157989	0.07414691332348522	1	3.89201832	1.38771875E-005
2	1	0	1	0	53640.1508	0.187828824	0.188112035	0.074028692335217305	1	3.91866851	1.39256881E-005
2	1	0	0	0	54000.1508	0.18882902	0.18921873	0.073844263564281976	1	3.94525266	1.39727181E-005
2	1	0	1	0	54360.1508	0.189829215	0.190096438	0.073916828140276891	1	3.97186255	1.40513257E-005
2	1	0	0	0	54720.1508	0.190829411	0.191126809	0.073988771647877094	1	3.99849868	1.41412374E-005
2	1	0	1	0	55080.1508	0.191829607	0.192214414	0.074433190044946862	1	4.0252943	1.4307132E-005
2	1	0	0	0	55440.1508	0.192829818	0.193168446	0.074888641653507948	1	4.05225468	1.44661226E-005
2	1	0	1	0	55800.1508	0.193830013	0.194179729	0.075561497182825121	1	4.07945681	1.46725106E-005
2	1	0	0	0	56160.1508	0.194830209	0.195248261	0.076394794080050232	1	4.10695887	1.49159505E-005
2	1	0	1	0	56520.1508	0.195830405	0.19618322	0.077256690444523546	1	4.13477135	1.51564664E-005
2	1	0	0	0	56880.1508	0.196830601	0.197213575	0.077991903137581226	1	4.162848	1.53810615E-005
2	1	0	1	0	57240.1508	0.197830796	0.198224857	0.078948484794580276	1	4.19126987	1.56495516E-005
2	1	0	0	0	57600.1508	0.198830992	0.19923614	0.079954295311690071	1	4.2200532	1.59297851E-005
2	1	0	1	0	57960.1508	0.199831188	0.200190187	0.081148205114230265	1	4.24926662	1.62450742E-005
2	1	0	0	0	58320.1508	0.200831383	0.201163307	0.082174833729308006	1	4.2788496	1.6530561E-005
2	1	0	1	0	58680.1508	0.201831594	0.202117354	0.083213612104285906	1	4.30880642	1.68189144E-005
2	1	0	0	0	59040.1508	0.20283179	0.203166798	0.084336866266143673	1	4.33916759	1.71344509E-005
2	1	0	1	0	59400.1508	0.203831986	0.204197153	0.085384287436596207	1	4.36990595	1.74352281E-005
2	1	0	0	0	59760.1508	0.204832181	0.205170274	0.086243775679108792	1	4.40095377	1.76946596E-005
2	1	0	1	0	60120.1508	0.205832377	0.206200644	0.087387327949209892	1	4.4324131	1.80193238E-005
2	1	0	0	0	60480.1508	0.206832573	0.207173765	0.088237260818220475	1	4.46417856	1.82804451E-005
2	1	0	1	0	60840.1508	0.207832769	0.208146885	0.08938001410999652	1	4.49635553	1.86041707E-005
2	1	0	0	0	61200.1508	0.208832964	0.209139079	0.090335732455009254	1	4.5288763	1.88927315E-005
2	1	0	1	0	61560.1508	0.20983316	0.210283935	0.091183685279240201	1	4.56170225	1.91744639E-005
2	1	0	0	0	61920.1508	0.210833371	0.211276129	0.092209302093117604	1	4.59489775	1.94816239E-005
2	1	0	1	0	62280.1508	0.211833566	0.212306499	0.093467305941891787	1	4.62854624	1.98437174E-005
2	1	0	0	0	62640.1508	0.212833762	0.213241458	0.094549720874627319	1	4.66258383	2.01619205E-005
2	1	0	1	0	63000.1508	0.213833958	0.214176416	0.09572757230559148	1	4.6970458	2.05025881E-005
2	1	0	0	0	63360.1508	0.214834154	0.215092301	0.096871297915482657	1	4.73191929	2.08362708E-005
2	1	0	1	0	63720.1508	0.215834349	0.216141745	0.098574782396708027	1	4.76740646	2.13061248E-005
2	1	0	0	0	64080.1508	0.216834545	0.217210263	0.099789441440991222	1	4.80333042	2.16752906E-005
2	1	0	1	0	64440.1508	0.217834741	0.218240634	0.10118768343680848	1	4.8397584	2.20832644E-005
2	1	0	0	0	64800.1508	0.218834937	0.219213754	0.10296088463312636	1	4.8768239	2.25704425E-005
2	1	0	1	0	65160.1508	0.219835147	0.2200533	0.10500727951724898	1	4.9146266	2.3107199E-005
2	1	0	0	0	65520.1508	0.220835343	0.22127448	0.10678772196776332	1	4.95307016	2.36293981E-005
2	1	0	1	0	65880.1507	0.221835539	0.222323924	0.10894193814488729	1	4.99228954	2.42203987E-005
2	1	0	0	0	66240.1506	0.222835734	0.223106235	0.11115578998857467	1	5.03230572	2.47995504E-005
2	1	0	1	0	66600.1506	0.22383593	0.224174753	0.11394103211068396	1	5.0733242	2.55427021E-005
2	1	0	0	0	66960.1505	0.224836126	0.225224197	0.11704725855331455	1	5.11546135	2.63618749E-005
2	1	0	1	0	67320.1504	0.225836322	0.226197317	0.12102837664429078	1	5.15903139	2.73762944E-005
2	1	0	0	0	67680.1503	0.226836517	0.227189526	0.12579423007297008	1	5.20431757	2.8579132E-005
2	1	0	1	0	68040.1502	0.227836728	0.228219897	0.13096125326419861	1	5.25146341	2.9887964E-005
2	1	0	0	0	68400.1501	0.228836924	0.229154855	0.13587896783395781	1	5.30037975	3.1137326E-005
2	1	0	1	0	68760.1500	0.22983712	0.230261534	0.14067018323540692	1	5.35102129	3.23909335E-005
2	1	0	0	0	69120.1500	0.230837315	0.231330067	0.14440395308098863	1	5.40300655	3.34049764E-005
2	1	0	1	0	69480.1499	0.231837511	0.232265025	0.14741696337311627	1	5.45607662	3.42398052E-005
2	1	0	0	0	69840.1498	0.232837707	0.233314469	0.1498449387341898	1	5.51002073	3.49609909E-005
2	1	0	1	0	70200.1497	0.233837903	0.234192178	0.15123129521660506	1	5.56446409	3.54171862E-005
2	1	0	0	0	70560.1496	0.234838098	0.235279784	0.15152930212798221	1	5.61901474	3.56517812E-005
2	1	0	1	0	70920.1495	0.235838294	0.236252904	0.15151664101232232	1	5.67356062	3.57962454E-005
2	1	0	0	0	71280.1495	0.236838505	0.237245113	0.15083384011657675	1	5.72786093	3.57845929E-005
2	1	0	1	0	71640.1494	0.2378387	0.238180071	0.15073118447428735	1	5.78212404	3.59011647E-005
2	1	0	0	0	72000.1493	0.238838896	0.23911503	0.14963599098178237	1	5.83599329	3.57802128E-005
2	1	0	1	0	72360.1492	0.239839092	0.240221724	0.14850119834163067	1	5.88945341	3.56732126E-005
2	1	0	0	0	72720.1491	0.240839288	0.24125208	0.14774500800673307	1	5.94264174	3.56437922E-005
2	1	0	1	0	73080.1490	0.241839483	0.242167965	0.14759139538187105	1	5.99577475	3.57419085E-005
2	1	0	0	0	73440.1489	0.242839679	0.243274644	0.14827607685216593	1	6.04915428	3.60718113E-005
2	1	0	1	0	73800.1489	0.243839875	0.244190529	0.14901470061307975	1	6.10279942	3.63879772E-005
2	1	0	0	0	74160.1488	0.244840071	0.245354459	0.14951180619348214	1	6.15662384	3.66833883E-005
2	1	0	1	0	74520.1487	0.245840281	0.246174932	0.15005112622792494	1	6.21064186	3.69388254E-005
2	1	0	0	0	74880.1486	0.246840477	0.247281611	0.1510017180104386	1	6.26500273	3.73399489E-005
2	1	0	1	0	75240.1485	0.247840673	0.248216569	0.15211994198029188	1	6.31976604	3.77586912E-005
2	1	0	0	0	75600.1484	0.248840868	0.24918969	0.15309337657520317	1	6.37487936	3.814929E-005
2	1	0	1	0	75960.1483	0.249841064	0.250200957	0.1531756190097413	1	6.43002272	3.83246879E-005
2	1	0	0	0	76320.1483	0.25084126	0.251135945	0.15159228547737003	1	6.48459578	3.80702731E-005
2	1	0	1	0	76680.1482	0.251841456	0.252166301	0.15199484133484464	1	6.53931379	3.83279767E-005
2	1	0	0	0	77040.1481	0.252841651	0.253120333	0.15345534278214768	1	6.59455776	3.8842667E-005
2	1	0	1	0	77400.1480	0.253841847	0.254207939	0.15523455014903487	1	6.6504426	3.94618546E-005
2	1	0	0	0	77760.1479	0.254842043	0.255276471	0.15433146593792557	1	6.70600176	3.93971932E-005
2	1	0	1	0	78120.1478	0.255842239	0.256135106	0.15449736246231449	1	6.761621	3.95721981E-005
2	1	0	0	0	78480.1477	0.256842434	0.257394433	0.15585249008418778	1	6.81772757	4.0115563E-005
2	1	0	1	0	78840.1477	0.25784263	0.258195817	0.15599239735258941	1	6.87388515	4.02765836E-005
2	1	0	0	0	79200.1476	0.258842826	0.259111702	0.15525674831006261	1	6.92977715	4.02288388E-005
2	1	0	1	0	79560.1475	0.259843022	0.260237485	0.15709634310757947	1	6.98633194	4.0882358E-005
2	1	0	0	0	79920.1474	0.260843217	0.261172444	0.15697488869484921	1	7.04284286	4.09975146E-005
2	1	0	1	0	80280.1473	0.261843413	0.262336373	0.15663251775749831	1	7.09923077	4.10904067E-005
2	1	0	0	0	80640.1472	0.262843609	0.263233155	0.15864703810306846	1	7.15634346	4.17611591E-005
2	1	0	1	0	81000.1472	0.263843834	0.264378011	0.15852968771044562	1	7.21341419	4.19117641E-005
2	1	0	0	0	81360.1471	0.26484403	0.265293896	0.15895780122719705	1	7.27063894	4.21705336E-005
2	1	0	1	0	81720.1470	0.265844226	0.266228855	0.15974162323488117	1	7.32814598	4.25278304E-005
2	1	0	0	0	82080.1469	0.266844422	0.26720196	0.15854768755948379	1	7.38522339	4.23642523E-005
2	1	0	1	0	82440.1468	0.267844617	0.268232346	0.1600737734720028	1	7.44285011	4.29369647E-005
2	1	0	0	0	82800.1467	0.268844813	0.269110054	0.15935751553453481	1	7.50021839	4.28847088E-005
2	1	0	1	0	83160.1466	0.269845009	0.270140409	0.16050227649003279	1	7.55799961	4.33581517E-005
2	1	0	0	0	83520.1466	0.270845205	0.271189868	0.15984267925799678	1	7.61554289	4.33477144E-005
2	1	0	1	0	83880.1465	0.2718454	0.272067577	0.1608006119455645	1	7.67343092	4.37486342E-005
2	1	0	0	0	84240.1464	0.272845596	0.273212433	0.16018876560934714	1	7.73109913	4.37655617E-005
2	1	0	1	0	84600.1463	0.273845792	0.274147391	0.16033821585826535	1	7.78882074	4.39563046E-005
2	1	0	0	0	84960.1462	0.274845988	0.275044173	0.16118305454696191	1	7.84684658	4.43324607E-005
2	1	0	1	0	85320.1461	0.275846183	0.276284426	0.16016363119338939	1	7.90450573	4.42507153E-005
2	1	0	0	0	85680.1460	0.276846379	0.277219385	0.16124211157854229	1	7.96255255	4.46994381E-005
2	1	0	1	0	86040.1460	0.277846575	0.27824977	0.15992396404969167	1	8.02012539	4.44988073E-005
2	1	0	0	0	86400.1459	0.278846771	0.279222876	0.16084144046016036	1	8.07802868	4.49106083E-005
2	1	0	1	0	86760.1458	0.279846966	0.280157834	0.16145296626630756	1	8.13615131	4.52323147E-005
2	1	0	0	0	87120.1457	0.280847192	0.281264514	0.1603488316441658	1	8.19387722	4.51004344E-005
2	1	0	1	0	87480.1456	0.281847388	0.282237649	0.16171431063923514	1	8.25209427	4.56418675E-005
2	1	0	0	0	87840.1455	0.282847583	0.283172607	0.16019310998846237	1	8.30976391	4.53622997E-005
2	1	0	1	0	88200.1454	0.283847779	0.284260213	0.16174551963287098	1	8.3679924	4.59778166E-005
2	1	0	0	0	88560.1454	0.284847975	0.285252422	0.16056320721941653	1	8.4257946	4.58010436E-005
2	1	0	1	0	88920.1453	0.285848171	0.286206454	0.16182249086226808	1	8.48405075	4.63146425E-005
2	1	0	0	0	89280.1452	0.286848366	0.287274987	0.16047731526426956	1	8.54182243	4.61011186E-005
2	1	0	1	0	89640.1451	0.287848562	0.288133621	0.16134541423202409	1	8.59990692	4.648904E-005
2	1	0	0	0	90000.1450	0.288848758	0.289202124	0.16123691545194219	1	8.65795231	4.66300589E-005
2	1	0	1	0	90360.1449	0.289848953	0.290251583	0.16095543749215668	1	8.71589661	4.67175705E-005
2	1	0	0	0	90720.1449	0.290849149	0.291243792	0.16020608607697007	1	8.77357006	4.66590282E-005
2	1	0	1	0	91080.1448	0.291849345	0.292255074	0.16018896660865956	1	8.83123875	4.68160397E-005
2	1	0	0	0	91440.1447	0.292849541	0.293170959	0.15897065697870327	1	8.88846779	4.6605579E-005
2	1	0	1	0	91800.1446	0.293849736	0.294258565	0.15912873696071395	1	8.94575405	4.68249928E-005
2	1	0	0	0	92160.1445	0.294849932	0.29528892	0.15726938598121176	1	9.00237083	4.64399054E-005
2	1	0	1	0	92520.1444	0.295850128	0.296300203	0.15785795151607007	1	9.05920029	4.67733444E-005
2	1	0	0	0	92880.1443	0.296750307	0.29700619	0.15622327496194988	1	9.11544037	4.63992801E-005
2	1	0	1	0	93240.1443	0.297750503	0.298112869	0.15618101768657544	1	9.17166615	4.65595731E-005
2	1	0	0	0	93600.1442	0.298750699	0.299028754	0.15666224225080672	1	9.22806454	4.6846515E-005
2	1	0	1	0	93960.1441	0.299750924	0.30017361	0.15451960902878792	1	9.28369141	4.63827091E-005
2	1	0	0	0	94320.1440	0.30075112	0.301051319	0.15520944387785995	1	9.33956623	4.6726007E-005
2	1	0	1	0	94680.1439	0.301751316	0.302157998	0.15331807882116899	1	9.39476109	4.63262841E-005
2	1	0	0	0	95040.1438	0.302751511	0.303035736	0.15390425100136129	1	9.4501667	4.66384881E-005
2	1	0	1	0	95400.1437	0.303751707	0.304123342	0.15293176523569557	1	9.50522232	4.65101184E-005
2	1	0	0	0	95760.1437	0.304751903	0.305077374	0.15245544254071142	1	9.56010628	4.65107078E-005
2	1	0	1	0	96120.1436	0.305752099	0.306088656	0.15263924830130371	1	9.61505604	4.6721143E-005
2	1	0	0	0	96480.1435	0.306752294	0.307080865	0.15086344976845689	1	9.66936684	4.63272772E-005
2	1	0	1	0	96840.1434	0.30775249	0.308111221	0.15123218603240951	1	9.7238102	4.65963349E-005
2	1	0	0	0	97200.1433	0.308752686	0.309065253	0.15015657380695968	1	9.77786732	4.64081786E-005
2	1	0	1	0	97560.1432	0.309752882	0.310133785	0.1502470202557078	1	9.83195591	4.65966768E-005
2	1	0	0	0	97920.1432	0.310753077	0.311183214	0.14876836245112934	1	9.88551235	4.62942189E-005
2	1	0	1	0	98280.1431	0.311753273	0.312080026	0.14867132095633284	1	9.93903446	4.63973483E-005
2	1	0	0	0	98640.1430	0.312753469	0.313148558	0.14763953526996865	1	9.99218464	4.62331082E-005
2	1	0	1	0	99000.1429	0.313753664	0.314083517	0.14667117718761991	1	10.0449858	4.6066998E-005
2	1	0	0	0	99360.1428	0.31475386	0.315171123	0.14674476415534699	1	10.0978146	4.62497119E-005
2	1	0	1	0	99720.1427	0.315754056	0.316087008	0.14579881306265774	1	10.1503019	4.60851115E-005
2	1	0	0	0	100080.1426	0.316754252	0.31715551	0.14604855951936702	1	10.202879	4.63201068E-005
2	1	0	1	0	100440.1426	0.317754477	0.318128645	0.14389489196591887	1	10.2546816	4.57770875E-005
2	1	0	0	0	100800.1425	0.318754673	0.319063604	0.14560824532208339	1	10.3071003	4.64582918E-005
2	1	0	1	0	101160.1424	0.319754869	0.32009396	0.1427383737626341	1	10.3584862	4.56896923E-005
2	1	0	0	0	101520.1423	0.320755064	0.321086168	0.14282523255142898	1	10.4099035	4.58592076E-005
2	1	0	1	0	101880.1422	0.32175526	0.322021127	0.14104896362945407	1	10.460681	4.54207475E-005
2	1	0	0	0	102240.1421	0.322755456	0.32314688	0.13945011516427819	1	10.5108833	4.50628686E-005
2	1	0	1	0	102600.1420	0.323755652	0.324215412	0.1393025515417175	1	10.5610323	4.51640335E-005
2	1	0	0	0	102960.1420	0.324755847	0.325245768	0.13727535600874163	1	10.6104507	4.464823E-005
2	1	0	1	0	103320.1419	0.325756043	0.326123506	0.13755294598110013	1	10.6599703	4.48592473E-005
2	1	0	0	0	103680.1418	0.326756239	0.327096611	0.13535627913089265	1	10.7086983	4.42745804E-005
2	1	0	1	0	104040.1417	0.327756435	0.32814607	0.13488155428534565	1	10.7572556	4.42608507E-005
2	1	0	0	0	104400.1416	0.32875663	0.329100102	0.13493789998613304	1	10.8058338	4.44080761E-005
2	1	0	1	0	104760.1415	0.329756826	0.330187708	0.13174906437850659	1	10.8532629	4.3501921E-005
2	1	0	0	0	105120.1414	0.330757022	0.331103593	0.13133565861088936	1	10.9005442	4.34857102E-005
2	1	0	1	0	105480.1414	0.331757218	0.332038552	0.13002078622775759	1	10.9473515	4.31719127E-005
2	1	0	0	0	105840.1413	0.332757413	0.333087981	0.12895339302386644	1	10.9937744	4.29528263E-005
2	1	0	1	0	106200.1412	0.333757609	0.334042042	0.12945886289647879	1	11.0403795	4.32447014E-005
2	1	0	0	0	106560.1411	0.334757835	0.335129648	0.12801882553549687	1	11.0864668	4.29029024E-005
2	1	0	1	0	106920.1410	0.33575803	0.336102754	0.12702472563063932	1	11.1321955	4.26933584E-005
2	1	0	0	0	107280.1409	0.336758226	0.33719036	0.12752181649519745	1	11.1781034	4.29991269E-005
2	1	0	1	0	107640.1409	0.337758422	0.338106245	0.12577615947295806	1	11.2233829	4.25257058E-005
2	1	0	0	0	108000.1408	0.338758618	0.339231998	0.12461135880617613	1	11.2682428	4.22721605E-005
2	1	0	1	0	108360.1407	0.339758813	0.340128809	0.12508634947262687	1	11.3132744	4.25454709E-005
2	1	0	0	0	108720.1406	0.340759009	0.341121018	0.12419565214027539	1	11.3579845	4.23657475E-005
2	1	0	1	0	109080.1405	0.341759205	0.34218955	0.12185145971751876	1	11.4018507	4.16962976E-005
2	1	0	0	0	109440.1404	0.342759401	0.343124509	0.12158860188124077	1	11.4456224	4.17200281E-005
2	1	0	1	0	109800.1403	0.343759596	0.344040364	0.12206784676659438	1	11.4895668	4.19962671E-005
2	1	0	0	0	110160.1403	0.344759792	0.345147073	0.12247577083482497	1	11.533658	4.22721532E-005
2	1	0	1	0	110520.1402	0.345759988	0.346177429	0.12274479137505508	1	11.5778465	4.24914761E-005
2	1	0	0	0	110880.1401	0.346760184	0.347169638	0.12032771930404423	1	11.6211643	4.17741321E-005
2	1	0	1	0	111240.1400	0.347760379	0.34818092	0.11828125645672261	1	11.6637459	4.11832771E-005
2	1	0	0	0	111600.1399	0.348760575	0.349115878	0.11830250803134079	1	11.7063351	4.13012858E-005
2	1	0	1	0	111960.1398	0.349760771	0.35006991	0.11838247079286712	1	11.7489529	4.14421411E-005
2	1	0	0	0	112320.1397	0.350760967	0.351100266	0.11833339116179692	1	11.7915525	4.15468858E-005
2	1	0	1	0	112680.1397	0.351761162	0.352035224	0.11851190535873979	1	11.8342171	4.17203664E-005
2	1	0	0	0	113040.1396	0.352761388	0.35312283	0.11727794608296205	1	11.8764372	4.14135211E-005
2	1	0	1	0	113400.1395	0.353761584	0.354153216	0.11447146371531392	1	11.9176464	4.05404353E-005
2	1	0	0	0	113760.1394	0.354761779	0.355030924	0.11334864028148765	1	11.9584522	4.02422738E-005
2	1	0	1	0	114120.1393	0.355761975	0.356137604	0.11322405779124534	1	11.9992123	4.03233462E-005
2	1	0	0	0	114480.1392	0.356762171	0.357129812	0.11364245274438201	1	12.0401239	4.0585106E-005
2	1	0	1	0	114840.1391	0.357762367	0.358198345	0.11369435246190651	1	12.0810537	4.07251282E-005
2	1	0	0	0	115200.1391	0.358762562	0.359076053	0.11142490441226682	1	12.1211672	4.00100143E-005
2	1	0	1	0	115560.1390	0.359762758	0.360087335	0.10980718312251048	1	12.1606979	3.95401767E-005
2	1	0	0	0	115920.1389	0.360762954	0.361155868	0.10996503384321514	1	12.200285	3.97145159E-005
2	1	0	1	0	116280.1388	0.361763149	0.362148046	0.10998010588461737	1	12.2398777	3.98290795E-005
2	1	0	0	0	116640.1387	0.362763345	0.363083005	0.11023755209195107	1	12.279563	4.00253812E-005
2	1	0	1	0	117000.1386	0.363763541	0.364151537	0.11034256137405002	1	12.3192863	4.01814141E-005
2	1	0	0	0	117360.1386	0.364763737	0.365086496	0.11039219245474374	1	12.3590279	4.0302697E-005
2	1	0	1	0	117720.1385	0.365763932	0.366250426	0.11038084154208494	1	12.3987646	4.04270286E-005
2	1	0	0	0	118080.1384	0.366764128	0.367128164	0.11013593203863725	1	12.4384136	4.04340026E-005
2	1	0	1	0	118440.1383	0.367764324	0.368349314	0.10999584336336699	1	12.4780121	4.05168939E-005
2	1	0	0	0	118800.1382	0.36876452	0.369246125	0.10981946670110854	1	12.5175476	4.05504143E-005
2	1	0	1	0	119160.1381	0.369764745	0.370028436	0.10918643307128299	1	12.5568542	4.04020866E-005
2	1	0	0	0	119520.1380	0.370764941	0.371096969	0.10884301762932713	1	12.5960379	4.03913145E-005
2	1	0	1	0	119880.1380	0.371765137	0.372089148	0.10842035668152486	1	12.6350689	4.03420381E-005
2	1	0	0	0	120240.1379	0.372765332	0.373138607	0.10812312712434657	1	12.6739941	4.03449121E-005
2	1	0	1	0	120600.1378	0.373765528	0.374188036	0.10784151984419665	1	12.7128162	4.03530066E-005
2	1	0	0	0	120960.1377	0.374765724	0.375103921	0.10736399501178395	1	12.7514677	4.02726546E-005
2	1	0	1	0	121320.1376	0.37576592	0.37615338	0.10691115881365609	1	12.7899561	4.02149926E-005
2	1	0	0	0	121680.1375	0.376766115	0.377164662	0.10684556888673447	1	12.8284197	4.02983715E-005
2	1	0	1	0	122040.1374	0.377766311	0.378023297	0.10642032551296454	1	12.8667316	4.02293626E-005
2	1	0	0	0	122400.1374	0.378766507	0.379225373	0.1062223759586074	1	12.9049711	4.02822188E-005
2	1	0	1	0	122760.1373	0.379766703	0.380198509	0.10578171550456417	1	12.9430532	4.02180522E-005
2	1	0	0	0	123120.1372	0.380766898	0.38103807	0.10555932064281159	1	12.9810543	4.02221194E-005
2	1	0	1	0	123480.1371	0.381767094	0.382106572	0.1054704722032489	1	13.0190239	4.03009617E-005
2	1	0	0	0	123840.1370	0.38276729	0.383060634	0.10535616189798125	1	13.0569515	4.03577978E-005
2	1	0	1	0	124200.1369	0.383767486	0.384186387	0.10529681234103933	1	13.0948582	4.04536004E-005
2	1	0	0	0	124560.1368	0.384767681	0.385102272	0.10517620417271223	1	13.1327219	4.05035935E-005
2	1	0	1	0	124920.1368	0.385767877	0.386266202	0.10520300485170142	1	13.1705952	4.06363652E-005
2	1	0	0	0	125280.1367	0.386768073	0.387182087	0.1056899646689784	1	13.2086439	4.09212626E-005
2	1	0	1	0	125640.1366	0.387768298	0.388250589	0.10573813374693608	1	13.2467089	4.10528919E-005
2	1	0	0	0	126000.1365	0.388768494	0.389204651	0.10577886652431134	1	13.28479	4.11696274E-005
2	1	0	1	0	126360.1364	0.38976869	0.390101433	0.10601496255315435	1	13.3229551	4.13565904E-005
2	1	0	0	0	126720.1363	0.390768886	0.391169965	0.10604689320087429	1	13.3611317	4.14823589E-005
2	1	0	1	0	127080.1363	0.391769081	0.392123997	0.10626934850551173	1	13.3993893	4.16707626E-005
2	1	0	0	0	127440.1362	0.392769277	0.393020809	0.10660048001233902	1	13.4377651	4.18962081E-005
2	1	0	1	0	127800.1361	0.393769473	0.394203812	0.10677095923254032	1	13.476203	4.20895194E-005
2	1	0	0	0	128160.1360	0.394769669	0.395062447	0.10720051751948062	1	13.5147943	4.23508973E-005
2	1	0	1	0	128520.1359	0.395769864	0.396207303	0.10735530032405838	1	13.553443	4.25349535E-005
2	1	0	0	0	128880.1358	0.39677006	0.397123188	0.10762075669254223	1	13.592186	4.27386985E-005
2	1	0	1	0	129240.1357	0.397770256	0.398153543	0.10790940460348297	1	13.6310339	4.29645115E-005
2	1	0	0	0	129600.1357	0.398770452	0.399012178	0.10821467292736386	1	13.6699905	4.3178974E-005
2	1	0	1	0	129960.1356	0.399770647	0.400080711	0.1085202935948596	1	13.7090578	4.3416876E-005
2	1	0	0	0	130320.1355	0.400770843	0.401206464	0.10900446428472765	1	13.7482996	4.37332965E-005
2	1	0	1	0	130680.1354	0.401771039	0.402046025	0.10942603087996028	1	13.787693	4.39942996E-005
2	1	0	0	0	131040.1353	0.402771235	0.403209955	0.10976719645236921	1	13.8272095	4.42592245E-005
2	1	0	1	0	131400.1354	0.40377143	0.404087663	0.11030505239431232	1	13.8669195	4.45729092E-005
2	1	0	0	0	131760.1354	0.404771656	0.405137122	0.11099168614180549	1	13.9068766	4.49668514E-005
2	1	0	1	0	132120.1355	0.405771852	0.40607208	0.11184503547864244	1	13.9471407	4.54171459E-005
2	1	0	0	0	132480.1355	0.406772047	0.407026112	0.1125589422665576	1	13.9876614	4.58144277E-005
2	1	0	1	0	132840.1356	0.407772243	0.408151895	0.11327603369270345	1	14.0284414	4.62338285E-005
2	1	0	0	0	133200.1356	0.408772439	0.40901053	0.11397142773267294	1	14.0694704	4.66155143E-005
2	1	0	1	0	133560.1357	0.409772635	0.410174459	0.11457775822088112	1	14.1107187	4.69968691E-005
2	1	0	0	0	133920.1358	0.41077283	0.411128491	0.11525531447564563	1	14.1522102	4.73847431E-005
2	1	0	1	0	134280.1358	0.411773026	0.412101597	0.11616913520492189	1	14.1940317	4.78734873E-005
2	1	0	0	0	134640.1359	0.412773222	0.413151056	0.11729833323878947	1	14.2362585	4.84619304E-005
2	1	0	1	0	135000.1359	0.413773417	0.414028764	0.11831162945550761	1	14.2788515	4.89844169E-005
2	1	0	0	0	135360.1360	0.414773613	0.415097296	0.11937002851966354	1	14.3218241	4.95501772E-005
2	1	0	1	0	135720.1360	0.415773809	0.416165829	0.12035223567780906	1	14.3651514	5.0086488E-005
2	1	0	0	0	136080.1361	0.416774005	0.41706261	0.12146032172165389	1	14.4088764	5.06565593E-005
2	1	0	1	0	136440.1361	0.4177742	0.418150216	0.12257261901533023	1	14.4530029	5.12537663E-005
2	1	0	0	0	136800.1362	0.418774396	0.419180602	0.12386116495621702	1	14.4975929	5.19201967E-005
2	1	0	1	0	137160.1363	0.419774592	0.420077384	0.12520664998040842	1	14.5426674	5.25964824E-005
2	1	0	0	0	137520.1363	0.420774788	0.421088666	0.12684044187739074	1	14.5883303	5.34110732E-005
2	1	0	1	0	137880.1364	0.421774983	0.422099948	0.12849420352115815	1	14.6345882	5.42373964E-005
2	1	0	0	0	138240.1364	0.422775209	0.423092157	0.13027948533258904	1	14.681488	5.51202284E-005
2	1	0	1	0	138600.1365	0.423775405	0.424065262	0.13212421497454657	1	14.7290535	5.60292901E-005
2	1	0	0	0	138960.1365	0.4247756	0.425095648	0.13423562151862511	1	14.7773781	5.70629782E-005
2	1	0	1	0	139320.1366	0.425775796	0.426297724	0.13631490157493276	1	14.8264513	5.81107306E-005
2	1	0	0	0	139680.1367	0.426775992	0.427137285	0.13875900638190419	1	14.8764048	5.92691467E-005
2	1	0	1	0	140040.1367	0.427776188	0.428072244	0.1412095985541324	1	14.9272404	6.04479101E-005
2	1	0	0	0	140400.1368	0.428776383	0.4291026	0.14367240491224653	1	14.9789619	6.16502002E-005
2	1	0	1	0	140760.1368	0.429776579	0.430113882	0.14673889534045381	1	15.0317879	6.31144358E-005
2	1	0	0	0	141120.1369	0.430776775	0.431144267	0.14974615725180307	1	15.0856972	6.45621985E-005
2	1	0	1	0	141480.1369	0.431776971	0.432174623	0.15340221140543608	1	15.1409216	6.62965394E-005
2	1	0	0	0	141840.1370	0.432777166	0.433109581	0.15761746567938062	1	15.1976643	6.82656319E-005
2	1	0	1	0	142200.1370	0.433777362	0.434139937	0.16203932159072809	1	15.2559977	7.03477417E-005
2	1	0	0	0	142560.1371	0.434777558	0.435113072	0.16677506237941481	1	15.3160372	7.25660066E-005
2	1	0	1	0	142920.1372	0.435777754	0.436124355	0.17238061989995313	1	15.3780937	7.5179385E-005
2	1	0	0	0	143280.1372	0.436777949	0.437116534	0.17860875282285882	1	15.4423933	7.80728369E-005
2	1	0	1	0	143640.1373	0.437778145	0.438204139	0.18510390022668499	1	15.5090303	8.11132923E-005
2	1	0	0	0	144000.1373	0.438778341	0.439196348	0.19245801502390014	1	15.5783157	8.45268587E-005
2	1	0	1	0	144360.1374	0.439778566	0.44020763	0.20011286234124648	1	15.6503563	8.80912121E-005
2	1	0	0	0	144720.1374	0.440778762	0.441104442	0.20870699151530037	1	15.7254906	9.20615785E-005
2	1	0	1	0	145080.1375	0.441778958	0.442096651	0.21807675723908648	1	15.803998	9.64110004E-005
2	1	0	0	0	145440.1376	0.442779154	0.443107933	0.22748332488222278	1	15.8858919	0.000100799669
2	1	0	1	0	145800.1376	0.443779349	0.444081038	0.23675029026803868	1	15.9711227	0.000105136314
2	1	0	0	0	146160.1377	0.444779545	0.445168644	0.24601631017927494	1	16.0596886	0.000109518747
2	1	0	1	0	146520.1377	0.445779741	0.446218103	0.25536259915201187	1	16.151619	0.000113947412
2	1	0	0	0	146880.1378	0.446779937	0.447114885	0.2633973642755878	1	16.2464428	0.000117768883
2	1	0	1	0	147240.1378	0.447780132	0.44808802	0.27128309716850518	1	16.3441048	0.000121558704
2	1	0	0	0	147600.1379	0.448780328	0.449175626	0.27814862929794515	1	16.4442368	0.000124937578
2	1	0	1	0	147960.1380	0.449780524	0.450129658	0.28454195946398686	1	16.5466728	0.000128080777
2	1	0	0	0	148320.1380	0.45078072	0.45108369	0.29025230461324236	1	16.6511631	0.000130928078
2	1	0	1	0	148680.1381	0.451780915	0.452133149	0.29453854624130571	1	16.7571964	0.000133170644
2	1	0	0	0	149040.1381	0.452781111	0.453125328	0.29777940711748219	1	16.864397	0.000134931397
2	1	0	1	0	149400.1382	0.453781307	0.45413661	0.29938784247961309	1	16.9721775	0.000135962982
2	1	0	0	0	149760.1382	0.454781502	0.455147922	0.30051897285348872	1	17.0803642	0.000136780582
2	1	0	1	0	150120.1383	0.455781698	0.456178278	0.300647313071158	1	17.1885967	0.000137148774
2	1	0	0	0	150480.1383	0.456781894	0.457055986	0.29997714020646171	1	17.2965889	0.000137106341
2	1	0	1	0	150840.1384	0.45778212	0.458277166	0.2987722578101355	1	17.4041462	0.000136920498
2	1	0	0	0	151200.1385	0.458782315	0.459135801	0.29626611393185121	1	17.5108032	0.000136026385
2	1	0	1	0	151560.1385	0.459782511	0.460089833	0.29220838153559292	1	17.6159973	0.000134442103
2	1	0	0	0	151920.1386	0.460782707	0.461101115	0.28886488596897975	1	17.7199898	0.000133195921
2	1	0	1	0	152280.1386	0.461782902	0.462093323	0.28546795622694798	1	17.8227577	0.000131912835
2	1	0	0	0	152640.1387	0.462783098	0.463200003	0.28197885239869347	1	17.9242706	0.000130612607
2	1	0	1	0	153000.1387	0.463783294	0.464211285	0.27768040147971762	1	18.0242348	0.000128902378
2	1	0	0	0	153360.1388	0.46478349	0.465108097	0.27335485861998465	1	18.1226425	0.000127139559
2	1	0	1	0	153720.1389	0.465783685	0.466176599	0.26795094698710553	1	18.2191048	0.000124912462
2	1	0	0	0	154080.1389	0.466783881	0.467226058	0.26269653404128218	1	18.3136768	0.000122738667
2	1	0	1	0	154440.1390	0.467784077	0.46812287	0.25732367492765151	1	18.4063129	0.000120459095
2	1	0	0	0	154800.1390	0.468784273	0.469057828	0.25197314763011169	1	18.4970226	0.000118189979
2	1	0	1	0	155160.1391	0.469784468	0.470164508	0.24730389429940125	1	18.5860519	0.000116273513
2	1	0	0	0	155520.1391	0.470784664	0.47117579	0.2420371813970057	1	18.6731853	0.000114042057
2	1	0	1	0	155880.1392	0.47178486	0.472129822	0.23674373088588308	1	18.7584133	0.000111773777
2	1	0	0	0	156240.1392	0.472785056	0.47312203	0.23167248886115788	1	18.8418159	0.000109609362
2	1	0	1	0	156600.1393	0.473785251	0.474018812	0.22661588461197058	1	18.9233971	0.000107420194
2	1	0	0	0	156960.1394	0.474785477	0.475125521	0.2220363690192082	1	19.0033302	0.000105495143
2	1	0	1	0	157320.1394	0.475785673	0.476136804	0.21719156848224497	1	19.0815201	0.000103412902
2	1	0	0	0	157680.1395	0.476785868	0.477148086	0.21301232265916134	1	19.1582031	0.000101638419
2	1	0	1	0	158040.1395	0.477786064	0.478140265	0.20876299495183659	1	19.2333584	9.98179967E-005
2	1	0	0	0	158400.1396	0.47878626	0.479132473	0.20469582515709073	1	19.3070488	9.80764162E-005
2	1	0	1	0	158760.1396	0.479786456	0.480201006	0.20008893987055432	1	19.3790817	9.60829129E-005
2	1	0	0	0	159120.1397	0.480786651	0.481269538	0.196442916377493	1	19.4498005	9.45419888E-005
2	1	0	1	0	159480.1398	0.481786847	0.482147247	0.19276448431060533	1	19.5191956	9.29408634E-005
2	1	0	0	0	159840.1398	0.482787043	0.483101279	0.18904607270230844	1	19.5872517	9.1328402E-005
2	1	0	1	0	160200.1399	0.483787239	0.484303385	0.18531608550214931	1	19.653965	8.97492064E-005
2	1	0	0	0	160560.1399	0.484787434	0.48521927	0.18209750415980786	1	19.7195206	8.83572211E-005
2	1	0	1	0	160920.1400	0.48578763	0.486096978	0.17889774675572889	1	19.7839241	8.69616561E-005
2	1	0	0	0	161280.1400	0.486787826	0.487127334	0.17638288901725563	1	19.8474216	8.59209249E-005
2	1	0	1	0	161640.1401	0.487788022	0.488100469	0.17397344331654407	1	19.9100533	8.49165226E-005
2	1	0	0	0	162000.1401	0.488788217	0.489073575	0.1715524049881349	1	19.9718113	8.39017448E-005
2	1	0	1	0	162360.1402	0.489788413	0.49016118	0.16867129091431643	1	20.0325336	8.2676117E-005
2	1	0	0	0	162720.1403	0.490788609	0.491229713	0.16595939820739902	1	20.0922775	8.15241874E-005
2	1	0	1	0	163080.1403	0.491788805	0.492183745	0.16375108763086299	1	20.151228	8.05956224E-005
2	1	0	0	0	163440.1404	0.49278903	0.493061483	0.16172024612550107	1	20.2094479	7.97380271E-005
2	1	0	1	0	163800.1404	0.493789226	0.494225413	0.1595401480932368	1	20.2668819	7.8848796E-005
2	1	0	0	0	164160.1405	0.494789422	0.495122194	0.15748136275442093	1	20.323576	7.7972516E-005
2	1	0	1	0	164520.1405	0.495789617	0.496076226	0.1555327248381162	1	20.3795681	7.71560881E-005
2	1	0	0	0	164880.1406	0.496789813	0.497087508	0.1535873125323487	1	20.4348583	7.63463322E-005
2	1	0	1	0	165240.1407	0.497790009	0.498251438	0.15027865890769498	1	20.4889603	7.48765597E-005
2	1	0	0	0	165600.1407	0.498790205	0.499110073	0.1450777540853454	1	20.5411873	7.24097699E-005
2	1	0	1	0	165960.1408	0.4997904	0.500121355	0.14254197480991482	1	20.5925026	7.12882829E-005
2	1	0	0	0	166320.1408	0.500790596	0.501266181	0.14097071009404139	1	20.6432514	7.0663853E-005
2	1	0	1	0	166680.1409	0.501790762	0.502220213	0.13857808386188397	1	20.69314	6.95967174E-005
2	1	0	0	0	167040.1409	0.502790987	0.503231525	0.13495764418549006	1	20.741724	6.7914938E-005
2	1	0	1	0	167400.1410	0.503791153	0.50409013	0.13606839942312865	1	20.7907085	6.85907362E-005
2	1	0	0	0	167760.1410	0.504791379	0.505215943	0.13453869234721672	1	20.8391438	6.79710938E-005
2	1	0	1	0	168120.1411	0.505791545	0.506112754	0.13058337571344855	1	20.8861542	6.60899095E-005
2	1	0	0	0	168480.1412	0.50679177	0.50720036	0.12814630884055878	1	20.9322853	6.49958529E-005
2	1	0	1	0	168840.1412	0.507791936	0.508287966	0.12614535952372652	1	20.9776993	6.41181687E-005
2	1	0	0	0	169200.1413	0.508792162	0.509032071	0.12356221546078294	1	21.0221806	6.2897132E-005
2	1	0	1	0	169560.1413	0.509792387	0.51019603	0.12249023955328986	1	21.0662766	6.24940367E-005
2	1	0	0	0	169920.1414	0.510792553	0.511188209	0.11967274670843442	1	21.1093597	6.11752985E-005
2	1	0	1	0	170280.1414	0.511792779	0.512275815	0.11869592447651334	1	21.1520901	6.08050505E-005
2	1	0	0	0	170640.1415	0.512792945	0.51313448	0.11609533946428852	1	21.1938839	5.95725214E-005
2	1	0	1	0	171000.1416	0.51379317	0.514107585	0.1156162834680618	1	21.2355061	5.94392077E-005
2	1	0	0	0	171360.1416	0.514793336	0.515176117	0.11372226968756971	1	21.2764454	5.85869966E-005
2	1	0	1	0	171720.1417	0.515793562	0.516130149	0.113099039719738	1	21.3171616	5.83738256E-005
2	1	0	0	0	172080.1417	0.516793728	0.517084181	0.11111211397382959	1	21.3571625	5.74543155E-005
2	1	0	1	0	172440.1418	0.517793953	0.518152714	0.11023500986374923	1	21.3968468	5.71185701E-005
2	1	0	0	0	172800.1418	0.518794119	0.519144893	0.10964647719554602	1	21.4363194	5.69224103E-005
2	1	0	1	0	173160.1419	0.519794345	0.520194352	0.10859108969577491	1	21.4754124	5.64884722E-005
2	1	0	0	0	173520.1419	0.520794511	0.52118659	0.10723266438335566	1	21.5140171	5.58882275E-005
2	1	0	1	0	173880.1420	0.521794736	0.522178769	0.10620610403963673	1	21.5522499	5.54585713E-005
2	1	0	0	0	174240.1421	0.522794902	0.523247302	0.10419335215450574	1	21.5897598	5.45188886E-005
2	1	0	1	0	174600.1421	0.523795128	0.524086833	0.10399339423963594	1	21.6271973	5.45015682E-005
2	1	0	0	0	174960.1422	0.524795294	0.525174439	0.10260063044830314	1	21.6641331	5.38832282E-005
2	1	0	1	0	175320.1422	0.525795519	0.526052177	0.10140985287615409	1	21.7006416	5.33468738E-005
2	1	0	0	0	175680.1423	0.526795685	0.52717793	0.10067746897337337	1	21.7368851	5.30749385E-005
2	1	0	1	0	176040.1423	0.527795911	0.528055668	0.099036402696987796	1	21.7725391	5.22967348E-005
2	1	0	0	0	176400.1424	0.528796136	0.529143274	0.098923012864842175	1	21.8081512	5.23444469E-005
2	1	0	1	0	176760.1425	0.529796302	0.530211806	0.097664734514690821	1	21.8433094	5.1782994E-005
2	1	0	0	0	177120.1425	0.530796528	0.531108558	0.097139369700381284	1	21.8782806	5.1591549E-005
2	1	0	1	0	177480.1426	0.531796694	0.532234371	0.095758196890370462	1	21.9127522	5.09658021E-005
2	1	0	0	0	177840.1426	0.532796919	0.533302903	0.095130168370782475	1	21.9470005	5.07331933E-005
2	1	0	1	0	178200.1427	0.533797085	0.534161508	0.093314942946264079	1	21.9805927	4.984525E-005
2	1	0	0	0	178560.1427	0.534797311	0.535268188	0.092621291025363761	1	22.013937	4.95772292E-005
2	1	0	1	0	178920.1428	0.535797477	0.536145926	0.089520277092618228	1	22.0461636	4.79959308E-005
2	1	0	0	0	179280.1429	0.536797702	0.537176251	0.089041821360430762	1	22.0782185	4.78311522E-005
2	1	0	1	0	179640.1429	0.537797868	0.53811121	0.089655942929714072	1	22.1104946	4.82448668E-005
2	1	0	0	0	180000.1430	0.538798094	0.539237022	0.087582495233615276	1	22.142025	4.72277243E-005
2	1	0	1	0	180360.1430	0.53979826	0.540229201	0.087200101399483865	1	22.173418	4.71080421E-005
2	1	0	0	0	180720.1431	0.540798485	0.541316807	0.087077298971311112	1	22.2047653	4.71364037E-005
2	1	0	1	0	181080.1431	0.541798651	0.542118192	0.085756388958059038	1	22.2356377	4.64900986E-005
2	1	0	0	0	181440.1432	0.542798877	0.543186724	0.085031735832657995	1	22.2662487	4.618811E-005
2	1	0	1	0	181800.1432	0.543799043	0.544121683	0.08435983603599162	1	22.2966175	4.59020157E-005
2	1	0	0	0	182160.1433	0.544799268	0.545190215	0.08423162516562055	1	22.3269424	4.59222574E-005
2	1	0	1	0	182520.1434	0.545799494	0.546220601	0.082786148654350744	1	22.3567448	4.52194981E-005
2	1	0	0	0	182880.1434	0.54679966	0.54727	0.082890441202289278	1	22.3865852	4.5363453E-005
2	1	0	1	0	183240.1435	0.547799885	0.548052311	0.082225266676507758	1	22.4161873	4.5063749E-005
2	1	0	0	0	183600.1435	0.548800051	0.549197197	0.081326633059121634	1	22.4454632	4.46643571E-005
2	1	0	1	0	183960.1436	0.549800277	0.550170302	0.080842105612411119	1	22.4745674	4.44769248E-005
2	1	0	0	0	184320.1436	0.550800443	0.551257908	0.080644907024568946	1	22.5035992	4.4456141E-005
2	1	0	1	0	184680.1437	0.551800668	0.55209744	0.079394308514247225	1	22.5321808	4.38333955E-005
2	1	0	0	0	185040.1438	0.552800834	0.553337693	0.078628344569280584	1	22.5604877	4.35080256E-005
2	1	0	1	0	185400.1438	0.55380106	0.554139137	0.078492199266962492	1	22.5887451	4.34955982E-005
2	1	0	0	0	185760.1439	0.554801226	0.555245817	0.077697556963910675	1	22.6167164	4.31412445E-005
2	1	0	1	0	186120.1439	0.555801451	0.556237996	0.077772687677537977	1	22.6447144	4.32601228E-005
2	1	0	0	0	186480.1440	0.556801617	0.557211101	0.076237494556870677	1	22.6721592	4.24803766E-005
2	1	0	1	0	186840.1440	0.557801843	0.558126986	0.07577276526149368	1	22.6994381	4.22908233E-005
2	1	0	0	0	187200.1441	0.558802009	0.559157372	0.074635539312449373	1	22.7263069	4.1733012E-005
2	1	0	1	0	187560.1441	0.559802234	0.560168624	0.074016433148793581	1	22.7529526	4.14616843E-005
2	1	0	0	0	187920.1442	0.5608024	0.56131351	0.073220854087384879	1	22.7793121	4.10998546E-005
2	1	0	1	0	188280.1443	0.561802626	0.562172115	0.072387710603103034	1	22.8053722	4.06943509E-005
2	1	0	0	0	188640.1443	0.562802851	0.563259721	0.072224640641878835	1	22.8313732	4.06812323E-005
2	1	0	1	0	189000.1444	0.563803017	0.564213753	0.071027897467381418	1	22.8569431	4.00749159E-005
2	1	0	0	0	189360.1444	0.564803243	0.565129638	0.071212015005499008	1	22.8825779	4.02440201E-005
2	1	0	1	0	189720.1445	0.565803409	0.566217244	0.070315568470230461	1	22.9078922	3.98138873E-005
2	1	0	0	0	190080.1445	0.566803634	0.567152202	0.070188382604250532	1	22.9331608	3.98074953E-005
2	1	0	1	0	190440.1446	0.5678038	0.568163514	0.069113746284296118	1	22.9580402	3.92679103E-005
2	1	0	0	0	190800.1447	0.568804026	0.56919384	0.069190638022377238	1	22.9829502	3.9382885E-005
2	1	0	1	0	191160.1447	0.569804192	0.570167005	0.067858568775842121	1	23.0073795	3.86907159E-005
2	1	0	0	0	191520.1448	0.570804417	0.571197331	0.067867622472552791	1	23.0318108	3.87658038E-005
2	1	0	1	0	191880.1448	0.571804583	0.57224679	0.066959664729372093	1	23.0559158	3.8317452E-005
2	1	0	0	0	192240.1449	0.572804809	0.573277175	0.066767985171975797	1	23.0799522	3.82765611E-005
2	1	0	1	0	192600.1449	0.573804975	0.574173987	0.066389255269151182	1	23.1038532	3.8118982E-005
2	1	0	0	0	192960.1450	0.5748052	0.575261593	0.065839290997023792	1	23.1275558	3.78748155E-005
2	1	0	1	0	193320.1450	0.575805366	0.576215625	0.065525987215679482	1	23.151144	3.77570977E-005
2	1	0	0	0	193680.1451	0.576805592	0.577226877	0.064802550888001465	1	23.1744728	3.74057745E-005
2	1	0	1	0	194040.1452	0.577805758	0.578085542	0.064596914621533608	1	23.1977291	3.73425428E-005
2	1	0	0	0	194400.1452	0.578805983	0.579230368	0.064018959482088578	1	23.2207756	3.70817252E-005
2	1	0	1	0	194760.1453	0.579806209	0.580165327	0.063889695603387975	1	23.2437763	3.70665875E-005
2	1	0	0	0	195120.1453	0.580806375	0.581176639	0.063232182083825195	1	23.2665386	3.67490684E-005
2	1	0	1	0	195480.1454	0.5818066	0.582245111	0.063321193784800167	1	23.2893353	3.68684559E-005
2	1	0	0	0	195840.1454	0.582806766	0.58318013	0.062533856458256154	1	23.3118477	3.64685038E-005
2	1	0	1	0	196200.1455	0.583806992	0.584229529	0.06252100459984189	1	23.3343544	3.65266169E-005
2	1	0	0	0	196560.1456	0.584807158	0.585240841	0.061821982685855287	1	23.3566113	3.61807506E-005
2	1	0	1	0	196920.1456	0.585807383	0.586099446	0.061542293154762784	1	23.3787651	3.6069905E-005
2	1	0	0	0	197280.1457	0.586807549	0.587206125	0.06125276740092156	1	23.400816	3.59680016E-005
2	1	0	1	0	197640.1457	0.587807775	0.58817929	0.060770088146850476	1	23.4226933	3.57437057E-005
2	1	0	0	0	198000.1458	0.58880794	0.589209616	0.060363776550406756	1	23.4444256	3.55669181E-005
2	1	0	1	0	198360.1458	0.589808166	0.590201855	0.059556375953480567	1	23.4658661	3.51502822E-005
2	1	0	0	0	198720.1459	0.590808332	0.59117496	0.059616181776587729	1	23.4873276	3.52435927E-005
2	1	0	1	0	199080.1459	0.591808558	0.592148066	0.058872165282161548	1	23.5085201	3.48610374E-005
2	1	0	0	0	199440.1460	0.592808723	0.593235672	0.0590826688737629	1	23.5297909	3.50499467E-005
2	1	0	1	0	199800.1461	0.593808949	0.594132483	0.058493366708780359	1	23.550848	3.47528076E-005
2	1	0	0	0	200160.1461	0.594809115	0.595201015	0.058273216697331542	1	23.5718269	3.46842789E-005
2	1	0	1	0	200520.1462	0.59580934	0.596288621	0.058746665501522091	1	23.5929756	3.5029967E-005
2	1	0	0	0	200880.1462	0.596809506	0.597185433	0.057994278152502132	1	23.6138535	3.46333363E-005
2	1	0	1	0	201240.1463	0.597809732	0.598292112	0.057949358848931376	1	23.634716	3.46706438E-005
2	1	0	0	0	201600.1463	0.598809958	0.599093497	0.057903579268250516	1	23.6555614	3.46896595E-005
2	1	0	1	0	201960.1464	0.599810123	0.60027653	0.057078187750960741	1	23.6761093	3.42626954E-005
2	1	0	0	0	202320.1465	0.600810349	0.601325929	0.057354295164205982	1	23.6967564	3.44886248E-005
2	1	0	1	0	202680.1465	0.601810515	0.602203667	0.056995844187655687	1	23.7172756	3.43231077E-005
2	1	0	0	0	203040.1466	0.60281074	0.603176773	0.056955622162645048	1	23.7377796	3.4354307E-005
2	1	0	1	0	203400.1466	0.603810906	0.604092658	0.05665195637965148	1	23.758173	3.42230305E-005
2	1	0	0	0	203760.1467	0.604811132	0.605256617	0.055884795290539913	1	23.7782917	3.38246427E-005
2	1	0	1	0	204120.1467	0.605811298	0.606191576	0.056131738659097874	1	23.7985001	3.40265869E-005
2	1	0	0	0	204480.1468	0.606811523	0.607240975	0.055778426383663371	1	23.8185806	3.38709469E-005
2	1	0	1	0	204840.1469	0.607811689	0.608233213	0.055071643708300644	1	23.8384056	3.34964025E-005
2	1	0	0	0	205200.1469	0.608811915	0.609149098	0.055253213208232954	1	23.8582973	3.36574449E-005
2	1	0	1	0	205560.1470	0.609812081	0.610217631	0.054496965150588772	1	23.8779163	3.3255008E-005
2	1	0	0	0	205920.1470	0.610812306	0.611305237	0.054331887038608751	1	23.8974743	3.32133677E-005
2	1	0	1	0	206280.1471	0.611812472	0.612354636	0.054447928409166679	1	23.9170761	3.33414428E-005
2	1	0	1	0	207000.1472	0.613812864	0.614186406	0.053362138933135822	1	23.9555702	3.27743001E-005
2	1	0	0	0	207360.1472	0.614813089	0.615274012	0.053473088353178933	1	23.9748211	3.29006034E-005
2	1	0	1	0	207720.1473	0.615813315	0.616113544	0.052563989338584971	1	23.9937439	3.23853856E-005
2	1	0	0	0	208080.1474	0.616813481	0.617239356	0.052348074681197954	1	24.0125885	3.23112909E-005
2	1	0	1	0	208440.1474	0.617813706	0.618307889	0.052219053884531519	1	24.0313873	3.22874512E-005
2	1	0	0	0	208800.1475	0.618813872	0.619185567	0.051506210584315537	1	24.0499306	3.1891901E-005
2	1	0	1	0	209160.1475	0.619814098	0.620235026	0.05113358648063604	1	24.0683384	3.17148406E-005
2	1	0	0	0	209520.1476	0.620814264	0.621303558	0.051358983399822478	1	24.0868282	3.19095197E-005
2	1	0	1	0	209880.1476	0.621814489	0.62225759	0.0506704694731408	1	24.1050682	3.15300858E-005
2	1	0	0	0	210240.1477	0.622814655	0.623192549	0.05028480240975608	1	24.1231709	3.13371129E-005
2	1	0	1	0	210600.1478	0.623814881	0.624146581	0.050285590317847406	1	24.1412735	3.1385578E-005
2	1	0	0	0	210960.1478	0.624815047	0.62531054	0.050173291278075793	1	24.1593361	3.13738892E-005
2	1	0	1	0	211320.1479	0.625815272	0.62635994	0.049187289575665205	1	24.1770439	3.08089475E-005
2	1	0	0	0	211680.1479	0.626815438	0.627294898	0.049100590935216903	1	24.1947212	3.0800551E-005
2	1	0	1	0	212040.1480	0.627815664	0.628210783	0.049043981963205585	1	24.2123756	3.08099588E-005
2	1	0	0	0	212400.1480	0.62881583	0.629164815	0.048917873067615636	1	24.2299862	3.07774062E-005
2	1	0	1	0	212760.1481	0.629816055	0.630233347	0.04812769761507063	1	24.2473125	3.03316792E-005
2	1	0	0	0	213120.1481	0.630816221	0.631244659	0.047981271170359108	1	24.2645855	3.02879216E-005
2	1	0	1	0	213480.1482	0.631816447	0.632294118	0.047984011216211209	1	24.2818604	3.03400084E-005
2	1	0	0	0	213840.1483	0.632816672	0.633267224	0.047794374431243236	1	24.2990665	3.02666103E-005
2	1	0	1	0	214200.1483	0.633816838	0.634278476	0.04712110937978431	1	24.3160305	2.98879058E-005
2	1	0	0	0	214560.1484	0.634817064	0.635289788	0.046953711722675297	1	24.3329334	2.98292143E-005
2	1	0	1	0	214920.1484	0.63581723	0.636167526	0.046953881689434152	1	24.3498363	2.98705345E-005
2	1	0	0	0	215280.1485	0.636817455	0.637140632	0.046948954312819979	1	24.3667374	2.99130861E-005
2	1	0	1	0	215640.1485	0.637817621	0.638190091	0.046109515867746503	1	24.383337	2.94266356E-005
2	1	0	0	0	216000.1486	0.638817847	0.63918227	0.045537103247975719	1	24.3997307	2.91065098E-005
2	1	0	1	0	216360.1487	0.639818013	0.640193522	0.04544765711403953	1	24.4160919	2.90952958E-005
2	1	0	0	0	216720.1487	0.640818238	0.641204834	0.045560034745861122	1	24.4324932	2.92133136E-005
2	1	0	1	0	217080.1488	0.641818404	0.642254293	0.045557977994396759	1	24.4488945	2.9259807E-005
2	1	0	0	0	217440.1488	0.64281863	0.643399119	0.04474086190933968	1	24.4650021	2.87862313E-005
2	1	0	1	0	217800.1489	0.643818796	0.644257784	0.044245901955986988	1	24.4809303	2.85057667E-005
2	1	0	0	0	218160.1489	0.644819021	0.645269036	0.044243542431588789	1	24.4968567	2.85489878E-005
2	1	0	1	0	218520.1490	0.645819187	0.646299422	0.044376006329643003	1	24.5128326	2.86801878E-005
2	1	0	0	0	218880.1490	0.646819413	0.647138953	0.044375622854522456	1	24.5288086	2.87171933E-005
2	1	0	1	0	219240.1491	0.647819579	0.64834106	0.043590387979956846	1	24.5445004	2.82614383E-005
2	1	0	0	0	219600.1492	0.648819804	0.649104297	0.043258156039286344	1	24.5600739	2.80790555E-005
2	1	0	1	0	219960.1492	0.64982003	0.650134623	0.043089395787345386	1	24.5755863	2.80139084E-005
2	1	0	0	0	220320.1493	0.650820196	0.651222229	0.043188736290695778	1	24.5911331	2.81254652E-005
2	1	0	1	0	220680.1493	0.651820421	0.652271688	0.043229656528439242	1	24.6066971	2.81974808E-005
2	1	0	0	0	221040.1494	0.652820587	0.653206646	0.043313541161898117	1	24.6222897	2.82926921E-005
2	1	0	1	0	221400.1494	0.653820813	0.654237032	0.042332986169836051	1	24.6375294	2.76958071E-005
2	1	0	0	0	221760.1495	0.654820979	0.65511471	0.04183309540726865	1	24.6525898	2.74054764E-005
2	1	0	1	0	222120.1496	0.655821204	0.656221449	0.041804780994295632	1	24.6676388	2.74331942E-005
2	1	0	0	0	222480.1496	0.65682137	0.657213628	0.041718779332838407	1	24.6826572	2.74181511E-005
2	1	0	1	0	222840.1497	0.657821596	0.658244014	0.041892708935319378	1	24.6977386	2.75756247E-005
2	1	0	0	0	223200.1497	0.658821762	0.659255266	0.041300105036946144	1	24.7126064	2.72273119E-005
2	1	0	1	0	223560.1498	0.659821987	0.660094857	0.040833263949362708	1	24.7273064	2.69538268E-005
2	1	0	0	0	223920.1498	0.660822153	0.661144257	0.040798680461736181	1	24.7419949	2.69738139E-005
2	1	0	1	0	224280.1499	0.661822379	0.662289143	0.040801412232058687	1	24.7566833	2.70223318E-005
2	1	0	0	0	224640.1499	0.662822545	0.663224101	0.040826594679140404	1	24.7713814	2.70771816E-005
2	1	0	1	0	225000.1500	0.66382277	0.664178133	0.040232852673872055	1	24.7858639	2.67217802E-005
2	1	0	0	0	225360.1501	0.664822936	0.665074944	0.039692756386349615	1	24.8001537	2.63986585E-005
2	1	0	1	0	225720.1501	0.665823162	0.666219771	0.039598613117320602	1	24.8144093	2.63813781E-005
2	1	0	0	0	226080.1502	0.666823328	0.667250156	0.039838326327597873	1	24.8287506	2.65821291E-005
2	1	0	1	0	226440.1502	0.667823553	0.668146908	0.039172755800394477	1	24.8428535	2.61731566E-005
2	1	0	0	0	226800.1503	0.668823779	0.669253588	0.038765694072786683	1	24.8568096	2.59440803E-005
2	1	0	1	0	227160.1503	0.669823945	0.670303047	0.038776302490244552	1	24.8707676	2.59918743E-005
2	1	0	0	0	227520.1504	0.67082417	0.671218932	0.03874811006816925	1	24.8847179	2.60084653E-005
2	1	0	1	0	227880.1505	0.671824336	0.672192037	0.038968203556045022	1	24.8987465	2.61941168E-005
2	1	0	0	0	228240.1505	0.672824562	0.673222423	0.038336687229670985	1	24.9125481	2.58091168E-005
2	1	0	1	0	228600.1506	0.673824728	0.674157381	0.03806277553103854	1	24.9262505	2.56603016E-005
2	1	0	0	0	228960.1506	0.674824953	0.675244987	0.038196822678465248	1	24.9400005	2.57922129E-005
2	1	0	1	0	229320.1507	0.675825119	0.676160872	0.038058655744159675	1	24.953701	2.57337742E-005
2	1	0	0	0	229680.1507	0.676825345	0.677267551	0.037402484480304019	1	24.9671669	2.53314884E-005
2	1	0	1	0	230040.1508	0.677825511	0.67825973	0.037116827265779362	1	24.9805298	2.51748497E-005
2	1	0	0	0	230400.1508	0.678825736	0.679137468	0.037277220065806915	1	24.993948	2.53163562E-005
2	1	0	1	0	230760.1509	0.679825902	0.680244148	0.037302312680524197	1	25.0073776	2.53746803E-005
2	1	0	0	0	231120.1510	0.680826128	0.681331754	0.036744492816717989	1	25.0206051	2.50351895E-005
2	1	0	1	0	231480.1510	0.681826293	0.682266712	0.036505422097171225	1	25.0337467	2.49064342E-005
2	1	0	0	0	231840.1511	0.682826519	0.683297098	0.036555531956176751	1	25.0469074	2.49782897E-005
2	1	0	1	0	232200.1511	0.683826685	0.684270203	0.036566419891568058	1	25.0600719	2.50213125E-005
2	1	0	0	0	232560.1512	0.68482691	0.685243309	0.036048937646914275	1	25.0730495	2.47022926E-005
2	1	0	1	0	232920.1512	0.685827136	0.686121047	0.035931185667521015	1	25.0859852	2.46531436E-005
2	1	0	0	0	233280.1513	0.686827302	0.687246799	0.036058303700027383	1	25.0989647	2.4780953E-005
2	1	0	1	0	233640.1514	0.687827528	0.688315332	0.03573485471092578	1	25.1118298	2.45968477E-005
2	1	0	0	0	234000.1514	0.688827693	0.689212143	0.035312044373100759	1	25.1245422	2.43374907E-005
2	1	0	1	0	234360.1515	0.689827919	0.690166175	0.035240665921248082	1	25.137228	2.43219165E-005
2	1	0	0	0	234720.1515	0.690828085	0.691215634	0.035475309266089938	1	25.1499996	2.45210886E-005
2	1	0	1	0	235080.1516	0.69182831	0.692322314	0.035009415032248969	1	25.1626034	2.42377992E-005
2	1	0	0	0	235440.1516	0.692828476	0.693276346	0.034749814121795619	1	25.1751137	2.4091225E-005
2	1	0	1	0	235800.1517	0.693828702	0.694192231	0.034887078557289675	1	25.1876717	2.42183396E-005
2	1	0	0	0	236160.1518	0.694828868	0.69529891	0.034880456564155282	1	25.2002296	2.42523438E-005
2	1	0	1	0	236520.1518	0.695829093	0.696348369	0.034262745666932271	1	25.2125645	2.38588073E-005
2	1	0	0	0	236880.1519	0.696829259	0.697321475	0.034115861157669292	1	25.2248459	2.3789722E-005
2	1	0	1	0	237240.1519	0.697829485	0.69823736	0.03420147645100638	1	25.2371578	2.38807479E-005
2	1	0	0	0	237600.1520	0.698829651	0.699191391	0.033905182719171645	1	25.2493649	2.37062122E-005
2	1	0	1	0	237960.1520	0.699829876	0.700278997	0.033582773006877134	1	25.2614536	2.35173102E-005
2	1	0	0	0	238320.1521	0.700830042	0.701290309	0.033516354252937086	1	25.2735195	2.35046937E-005
2	1	0	1	0	238680.1521	0.701830268	0.702282488	0.033584572013520303	1	25.2856102	2.3585857E-005
2	1	0	0	0	239040.1522	0.702830493	0.7031793	0.033242009598263025	1	25.2975769	2.33750925E-005
2	1	0	1	0	239400.1523	0.703830659	0.704305053	0.032830376873523415	1	25.3093967	2.31226004E-005
2	1	0	0	0	239760.1523	0.704830885	0.705259085	0.032846984144746239	1	25.3212204	2.3165634E-005
2	1	0	1	0	240120.1524	0.705831051	0.70623219	0.032906305583911	1	25.3330669	2.32394923E-005
2	1	0	0	0	240480.1524	0.706831276	0.707224429	0.032437707626359058	1	25.3447456	2.29407397E-005
2	1	0	1	0	240840.1525	0.707831442	0.708197534	0.03218316661313176	1	25.3563309	2.27920391E-005
2	1	0	0	0	241200.1525	0.708831668	0.709246993	0.032233868408980237	1	25.3679352	2.28617737E-005
2	1	0	1	0	241560.1526	0.709831834	0.710372746	0.031981875234034063	1	25.3794479	2.27190521E-005
2	1	0	0	0	241920.1527	0.710832059	0.711193204	0.031447024024728043	1	25.39077	2.23649095E-005
2	1	0	1	0	242280.1527	0.711832225	0.712242663	0.031538072823445409	1	25.4021225	2.24627602E-005
2	1	0	0	0	242640.1528	0.712832451	0.713120401	0.031439043889127466	1	25.4134407	2.24198229E-005
2	1	0	1	0	243000.1528	0.713832617	0.714265227	0.030959740562485516	1	25.4245872	2.21134669E-005
2	1	0	0	0	243360.1529	0.714832842	0.715200186	0.030964891921152427	1	25.4357338	2.21460959E-005
2	1	0	1	0	243720.1529	0.715833008	0.716230571	0.030966452004904332	1	25.4468822	2.21791197E-005
2	1	0	0	0	244080.1530	0.716833234	0.717203677	0.030613106868309425	1	25.4579029	2.19558333E-005
2	1	0	1	0	244440.1530	0.7178334	0.718138635	0.03036903193395582	1	25.4688358	2.18091755E-005
2	1	0	0	0	244800.1531	0.718833625	0.719226241	0.030491578538463293	1	25.4798126	2.19303438E-005
2	1	0	1	0	245160.1532	0.719833851	0.720332921	0.030519826915542503	1	25.4908009	2.19844369E-005
2	1	0	0	0	245520.1532	0.720834017	0.721210659	0.030052906834792559	1	25.5016193	2.16744775E-005
2	1	0	1	0	245880.1533	0.721834242	0.722183764	0.029897730111291376	1	25.5123825	2.15916552E-005
2	1	0	0	0	246240.1533	0.722834408	0.723309517	0.029698855911810956	1	25.5230732	2.14814645E-005
2	1	0	1	0	246600.1534	0.723834634	0.724187255	0.029305317951939552	1	25.5336227	2.12225386E-005
2	1	0	0	0	246960.1534	0.7248348	0.725198567	0.029379263535840437	1	25.5442009	2.13057992E-005
2	1	0	1	0	247320.1535	0.725835025	0.726362467	0.028944760691623925	1	25.5546207	2.1024387E-005
2	1	0	0	0	247680.1536	0.726835191	0.727278352	0.028735360755633765	1	25.5649643	2.08986057E-005
2	1	0	1	0	248040.1536	0.727835417	0.728308737	0.028870321351998574	1	25.5753574	2.1026508E-005
2	1	0	0	0	248400.1537	0.728835583	0.729224563	0.028327466360416442	1	25.585556	2.0657084E-005
2	1	0	1	0	248760.1537	0.729835808	0.730216801	0.028320289243310648	1	25.5957508	2.06799505E-005
2	1	0	0	0	249120.1538	0.730835974	0.731189907	0.028362323489280195	1	25.6059628	2.07382454E-005
2	1	0	1	0	249480.1538	0.7318362	0.732143939	0.027941379826566609	1	25.6160202	2.04571115E-005
2	1	0	0	0	249840.1539	0.732836366	0.733231544	0.027995591125410613	1	25.6260986	2.05272499E-005
2	1	0	1	0	250200.1539	0.733836591	0.734300077	0.027975085093200902	1	25.6361694	2.05421074E-005
2	1	0	0	0	250560.1540	0.734836757	0.735273182	0.027497298387024083	1	25.6460686	2.02180254E-005
2	1	0	1	0	250920.1541	0.735836983	0.736227274	0.027539133235013336	1	25.655983	2.02750616E-005
2	1	0	0	0	251280.1541	0.736837149	0.737238526	0.027135658674704716	1	25.6657524	2.00054528E-005
2	1	0	1	0	251640.1542	0.737837374	0.738230705	0.027092813424315909	1	25.6755066	2.00007471E-005
2	1	0	0	0	252000.1542	0.7388376	0.739318311	0.027309449136537572	1	25.6853371	2.01903749E-005
2	1	0	1	0	252360.1543	0.739837766	0.740215123	0.026882423315333817	1	25.695015	1.98987764E-005
2	1	0	0	0	252720.1543	0.740837991	0.741207361	0.026997139071868681	1	25.7047329	2.00104787E-005
2	1	0	1	0	253080.1544	0.741838157	0.74214232	0.02668894007178535	1	25.7143421	1.9806992E-005
2	1	0	0	0	253440.1545	0.742838383	0.743268073	0.026455624995227467	1	25.7238655	1.96636211E-005
2	1	0	1	0	253800.1545	0.743838549	0.744260252	0.02653381514770492	1	25.7334175	1.9748064E-005
2	1	0	0	0	254160.1546	0.744838774	0.745309711	0.02605449054610294	1	25.7427979	1.9418665E-005
2	1	0	1	0	254520.1546	0.74583894	0.746263742	0.026149063469756151	1	25.7522106	1.95140983E-005
2	1	0	0	0	254880.1547	0.746839166	0.747236848	0.025923303955316307	1	25.7615433	1.93708474E-005
2	1	0	1	0	255240.1547	0.747839332	0.748286307	0.026018076534691237	1	25.7709103	1.9468971E-005
2	1	0	0	0	255600.1548	0.748839557	0.749316692	0.025905548506417409	1	25.7802353	1.941146E-005
2	1	0	1	0	255960.1548	0.749839723	0.75007993	0.025778620578826739	1	25.7895164	1.93360265E-005
2	1	0	0	0	256320.1549	0.750839949	0.75135833	0.025931634893017919	1	25.798851	1.94839504E-005
2	1	0	1	0	256680.1550	0.751840115	0.752331436	0.025753650232821446	1	25.8081226	1.93752803E-005
2	1	0	0	0	257040.1550	0.75284034	0.753323674	0.025676855840935476	1	25.8173676	1.93429842E-005
2	1	0	1	0	257400.1551	0.753840506	0.754277706	0.025428865670237888	1	25.8265209	1.91804265E-005
2	1	0	0	0	257760.1551	0.754840732	0.755327106	0.025312145118707163	1	25.8356342	1.91189501E-005
2	1	0	1	0	258120.1552	0.755840957	0.756338418	0.02549268946127653	1	25.8448105	1.92811003E-005
2	1	0	0	0	258480.1552	0.756841123	0.757216156	0.025658886594960656	1	25.8540478	1.94293243E-005
2	1	0	1	0	258840.1553	0.757841349	0.758208334	0.025384490302669704	1	25.8631859	1.92467323E-005
2	1	0	0	0	259200.1554	0.758841515	0.759315014	0.025216343233598809	1	25.8722649	1.91471481E-005
2	1	0	1	0	259560.1554	0.75984174	0.760249972	0.025364870858469779	1	25.8813953	1.92836433E-005
2	1	0	0	0	259920.1555	0.760841906	0.761223078	0.024905521090198279	1	25.8903618	1.89586572E-005
2	1	0	1	0	260280.1555	0.761842132	0.762272537	0.024703911751475571	1	25.8992558	1.88311133E-005
2	1	0	0	0	260640.1556	0.762842298	0.763150275	0.024967008407086933	1	25.9082432	1.90535793E-005
2	1	0	1	0	261000.1556	0.763842523	0.764256954	0.024713667915372384	1	25.917141	1.88875929E-005
2	1	0	0	0	261360.1557	0.764842689	0.765210986	0.02458851612093961	1	25.925993	1.88154027E-005
2	1	0	1	0	261720.1557	0.765842915	0.766260445	0.024824326795019822	1	25.9349289	1.90218998E-005
2	1	0	0	0	262080.1558	0.766843081	0.767271698	0.024285448369699397	1	25.9436722	1.86335365E-005
2	1	0	1	0	262440.1556	0.767843306	0.768244863	0.024003279491116525	1	25.9523125	1.84403962E-005
2	1	0	0	0	262800.1553	0.768843472	0.769313335	0.02426439802544289	1	25.9610481	1.86669258E-005
2	1	0	1	0	263160.1551	0.769843698	0.770324647	0.023996965074800924	1	25.9696865	1.84854543E-005
2	1	0	0	0	263520.1548	0.770843863	0.771316826	0.023728949118453135	1	25.9782295	1.83025386E-005
2	1	0	1	0	263880.1545	0.771844089	0.772309065	0.023590106586945346	1	25.986721	1.82188523E-005
2	1	0	0	0	264240.1543	0.772844315	0.77322495	0.023176966052744524	1	25.9950657	1.79210092E-005
2	1	0	1	0	264600.1540	0.773844481	0.774331629	0.023268545574820054	1	26.0034428	1.80175703E-005
2	1	0	0	0	264960.1537	0.774844706	0.775247514	0.023062077048915552	1	26.0117455	1.78788177E-005
2	1	0	1	0	265320.1534	0.775844872	0.776373267	0.022596414763372791	1	26.0198784	1.75432524E-005
2	1	0	0	0	265680.1532	0.776845098	0.777346373	0.022780639104465372	1	26.02808	1.77084476E-005
2	1	0	1	0	266040.1529	0.777845263	0.778281331	0.0225290966082074	1	26.03619	1.75339756E-005
2	1	0	0	0	266400.1526	0.778845489	0.779254436	0.022368170024560125	1	26.0442429	1.74304951E-005
2	1	0	1	0	266760.1524	0.779845655	0.780132174	0.022147337863899552	1	26.0522156	1.72778509E-005
2	1	0	0	0	267120.1521	0.780845881	0.781257927	0.021933480852376647	1	26.060112	1.7135706E-005
2	1	0	1	0	267480.1518	0.781846046	0.782345533	0.022070092219673043	1	26.068058	1.72664386E-005
2	1	0	0	0	267840.1516	0.782846272	0.783375919	0.021671208603968872	1	26.0758591	1.69767027E-005
2	1	0	1	0	268200.1513	0.783846438	0.784310877	0.021545331077334584	1	26.0836163	1.68982369E-005
2	1	0	0	0	268560.1510	0.784846663	0.785264909	0.0215113235824793	1	26.0913601	1.68920869E-005
2	1	0	1	0	268920.1508	0.785846829	0.786295295	0.021329683307120539	1	26.0990391	1.67714297E-005
2	1	0	0	0	269280.1505	0.786847055	0.787249327	0.021496628994642636	1	26.1067772	1.69232062E-005
2	1	0	1	0	269640.1502	0.787847221	0.788146138	0.021274553844134014	1	26.1144352	1.67674571E-005
2	1	0	0	0	270000.1500	0.788847446	0.789271891	0.021287047587282282	1	26.1220989	1.68012684E-005
2	1	0	1	0	270360.1497	0.789847672	0.790340424	0.020977389565722815	1	26.129652	1.6579279E-005
2	1	0	0	0	270720.1494	0.790847838	0.791313529	0.020734128411712294	1	26.1371155	1.64071971E-005
2	1	0	1	0	271080.1492	0.791848063	0.792286634	0.02110584344797356	1	26.1447144	1.67218768E-005
2	1	0	0	0	271440.1489	0.792848229	0.793259799	0.021153054189941734	1	26.1523285	1.6779868E-005
2	1	0	1	0	271800.1486	0.793848455	0.794309199	0.020919516106047087	1	26.1598587	1.66165646E-005
2	1	0	0	0	272160.1484	0.794848621	0.795186937	0.020922287916972593	1	26.1673908	1.66371301E-005
2	1	0	1	0	272520.1481	0.795848846	0.796350837	0.021042753408482912	1	26.1749668	1.67574144E-005
2	1	0	0	0	272880.1478	0.796849012	0.797285795	0.020743392325962576	1	26.1824341	1.65384117E-005
2	1	0	1	0	273240.1475	0.797849238	0.798297107	0.020633095291870518	1	26.1898632	1.64713401E-005
2	1	0	0	0	273600.1473	0.798849404	0.79936564	0.020396051697535431	1	26.1972046	1.63039022E-005
2	1	0	1	0	273960.1470	0.799849629	0.800243378	0.020297133550954305	1	26.2045116	1.62426459E-005
2	1	0	0	0	274320.1467	0.800849795	0.801178336	0.019998775653551432	1	26.2117119	1.60225864E-005
2	1	0	1	0	274680.1465	0.801850021	0.802227736	0.019990731757987934	1	26.2189083	1.60371201E-005
2	1	0	0	0	275040.1462	0.802850187	0.803239048	0.019626817573715538	1	26.2259731	1.57650265E-005
2	1	0	1	0	275400.1459	0.803850412	0.804288507	0.01972836831870281	1	26.2330761	1.58672992E-005
2	1	0	0	0	275760.1457	0.804850578	0.805242538	0.019567489860715964	1	26.2401199	1.57565755E-005
2	1	0	1	0	276120.1454	0.805850804	0.806291938	0.019510997120960494	1	26.2471447	1.5731559E-005
2	1	0	0	0	276480.1451	0.80685097	0.807207823	0.019185448159293995	1	26.2540512	1.5486643E-005
2	1	0	1	0	276840.1449	0.807851195	0.808238208	0.01912205050708099	1	26.2609348	1.54551726E-005
2	1	0	0	0	277200.1446	0.808851421	0.809230387	0.018782526602813349	1	26.2676964	1.51993909E-005
2	1	0	1	0	277560.1443	0.809851587	0.810432494	0.018823746039039524	1	26.2744732	1.52553757E-005
2	1	0	0	0	277920.1441	0.810851812	0.811424673	0.018758959584667612	1	26.2812271	1.52214825E-005
2	1	0	1	0	278280.1438	0.811851978	0.812207043	0.018627883750917382	1	26.2879333	1.51296981E-005
2	1	0	0	0	278640.1435	0.812852204	0.813294649	0.018542635189764511	1	26.2946072	1.50806263E-005
2	1	0	1	0	279000.1433	0.81385237	0.814248681	0.018297516699510852	1	26.3011951	1.48987292E-005
2	1	0	0	0	279360.1430	0.814852595	0.815355361	0.018374307989862004	1	26.3078098	1.49815905E-005
2	1	0	1	0	279720.1427	0.815852761	0.816366613	0.01811751320723648	1	26.314333	1.4790533E-005
2	1	0	0	0	280080.1425	0.816852987	0.81712985	0.018197311193129666	1	26.3208828	1.48695663E-005
2	1	0	1	0	280440.1422	0.817853153	0.818274736	0.017991956389869251	1	26.3273602	1.47223636E-005
2	1	0	0	0	280800.1419	0.818853378	0.819305062	0.017822518950471034	1	26.3337765	1.46020802E-005
2	1	0	1	0	281160.1416	0.819853544	0.820316374	0.018039060630721235	1	26.340271	1.47977371E-005
2	1	0	0	0	281520.1414	0.82085377	0.821174979	0.017760557854472031	1	26.3466644	1.45845261E-005
2	1	0	1	0	281880.1411	0.821853936	0.822319865	0.017826431940687393	1	26.3530827	1.46590291E-005
2	1	0	0	0	282240.1408	0.822854161	0.823254824	0.017990336042914223	1	26.3595581	1.4810631E-005
2	1	0	1	0	282600.1406	0.823854327	0.824208856	0.017820467739474627	1	26.3659744	1.46877874E-005
2	1	0	0	0	282960.1403	0.824854553	0.825162888	0.017699361023979468	1	26.372345	1.4604856E-005
2	1	0	1	0	283320.1400	0.825854778	0.826250494	0.017780091421244551	1	26.378746	1.46908096E-005
2	1	0	0	0	283680.1398	0.826854944	0.827319026	0.01777978967939399	1	26.3851471	1.47095579E-005
2	1	0	1	0	284040.1395	0.82785517	0.828196704	0.01748507481429467	1	26.3914413	1.44810811E-005
2	1	0	0	0	284400.1392	0.828855336	0.829265237	0.01741273736572721	1	26.3977108	1.44397782E-005
2	1	0	1	0	284760.1390	0.829855561	0.830200195	0.017076077355987707	1	26.4038582	1.41765631E-005
2	1	0	0	0	285120.1387	0.830855727	0.831345081	0.017100494641389991	1	26.4100132	1.42164117E-005
2	1	0	1	0	285480.1384	0.831855953	0.832203686	0.016929839006422809	1	26.4161091	1.40890743E-005
2	1	0	0	0	285840.1382	0.832856119	0.833329439	0.016986355336104625	1	26.422224	1.415523E-005
2	1	0	1	0	286200.1379	0.833856344	0.834397972	0.016678700719806372	1	26.4282284	1.39166741E-005
2	1	0	0	0	286560.1376	0.83485651	0.835256636	0.016716750467821132	1	26.4342461	1.39627764E-005
2	1	0	1	0	286920.1374	0.835856736	0.836267889	0.016502559199859386	1	26.4401875	1.38005607E-005
2	1	0	0	0	287280.1371	0.836856902	0.837298274	0.016421287790470113	1	26.4460983	1.37495163E-005
2	1	0	1	0	287640.1368	0.837857127	0.838309586	0.016342157253366352	1	26.4519825	1.36997869E-005
2	1	0	0	0	288000.1366	0.838857293	0.839320838	0.016050544057374105	1	26.4577599	1.34715565E-005
2	1	0	1	0	288360.1363	0.839857519	0.840408444	0.016122645033338712	1	26.4635639	1.35496066E-005
2	1	0	0	0	288720.1360	0.840857685	0.841247976	0.016063496436713159	1	26.469347	1.35133841E-005
2	1	0	1	0	289080.1357	0.84185791	0.842259288	0.015873644286195421	1	26.4750614	1.3369724E-005
2	1	0	0	0	289440.1355	0.842858136	0.843404114	0.015962965308355837	1	26.4808083	1.3463231E-005
2	1	0	1	0	289800.1352	0.843858302	0.844243705	0.015690469782645267	1	26.4864559	1.32465802E-005
2	1	0	0	0	290160.1349	0.844858527	0.845254958	0.015750281301471908	1	26.4921265	1.33130034E-005
2	1	0	1	0	290520.1347	0.845858693	0.846285343	0.015806758715704389	1	26.497818	1.33770282E-005
2	1	0	0	0	290880.1344	0.846858919	0.847296596	0.015638057241741984	1	26.5034466	1.32500727E-005
2	1	0	1	0	291240.1341	0.847859085	0.848250628	0.015831411232797216	1	26.5091457	1.34290049E-005
2	1	0	0	0	291600.1339	0.84885931	0.849281013	0.015596938825814116	1	26.514761	1.32461837E-005
2	1	0	1	0	291960.1336	0.849859476	0.850387692	0.015556111528008842	1	26.5203609	1.32287259E-005
2	1	0	0	0	292320.1333	0.850859702	0.851341724	0.015681567036936878	1	26.5260067	1.33503727E-005
2	1	0	1	0	292680.1331	0.851859868	0.852257609	0.01540999993941744	1	26.5315552	1.31332899E-005
2	1	0	0	0	293040.1328	0.852860093	0.853268921	0.015518965114165194	1	26.5371418	1.32418509E-005
2	1	0	1	0	293400.1325	0.853860259	0.854299247	0.015302564669379737	1	26.5426502	1.30729695E-005
2	1	0	0	0	293760.1323	0.854860485	0.855253339	0.015219607801124857	1	26.54813	1.301662E-005
2	1	0	1	0	294120.1320	0.855860651	0.856321812	0.015369172428974676	1	26.5536613	1.31609577E-005
2	1	0	0	0	294480.1317	0.856860876	0.857275903	0.015105153278165182	1	26.5590992	1.29492837E-005
2	1	0	1	0	294840.1315	0.857861042	0.858306229	0.015110670312678209	1	26.564539	1.29695827E-005
2	1	0	0	0	295200.1312	0.858861268	0.85914582	0.014955783803580924	1	26.5699234	1.28491993E-005
2	1	0	1	0	295560.1309	0.859861493	0.86036694	0.014875447879152653	1	26.5752792	1.2798344E-005
2	1	0	0	0	295920.1307	0.860861659	0.861359179	0.014845819714941699	1	26.5806236	1.27875828E-005
2	1	0	1	0	296280.1304	0.861861885	0.862389505	0.014585320336608643	1	26.5858746	1.25782271E-005
2	1	0	0	0	296640.1301	0.862862051	0.86336267	0.014550326845532036	1	26.5911121	1.25622091E-005
2	1	0	1	0	297000.1298	0.863862276	0.864316702	0.014601312750880599	1	26.5963688	1.26201585E-005
2	1	0	0	0	297360.1296	0.864862442	0.86525166	0.014487074449629905	1	26.6015835	1.25349652E-005
2	1	0	1	0	297720.1293	0.865862668	0.866320193	0.01431302304460047	1	26.6067371	1.23996606E-005
2	1	0	0	0	298080.1290	0.866862833	0.867293298	0.014338390971033108	1	26.6118984	1.24355902E-005
2	1	0	1	0	298440.1288	0.867863059	0.868342757	0.014394039650505619	1	26.6170807	1.24989601E-005
2	1	0	0	0	298800.1285	0.868863225	0.869392216	0.014108315955256107	1	26.62216	1.22656602E-005
2	1	0	1	0	299160.1282	0.869863451	0.870250821	0.0140007940072975	1	26.6271992	1.21842022E-005
2	1	0	0	0	299520.1280	0.870863616	0.871452928	0.014071856621892916	1	26.6322651	1.22629608E-005
2	1	0	1	0	299880.1277	0.871863842	0.872349739	0.014056586177675579	1	26.6373253	1.22622596E-005
2	1	0	0	0	300240.1274	0.872864008	0.873322845	0.013836642072369454	1	26.6423073	1.20838558E-005
2	1	0	1	0	300600.1272	0.873864233	0.874124229	0.013813652616444849	1	26.6472797	1.20748482E-005
2	1	0	0	0	300960.1269	0.874864399	0.875288188	0.013852078065228035	1	26.6522675	1.21245603E-005
2	1	0	1	0	301320.1266	0.875864625	0.876223147	0.013773714538459769	1	26.6572247	1.20688474E-005
2	1	0	0	0	301680.1264	0.876864791	0.877387047	0.013528692655413302	1	26.662096	1.18698999E-005
2	1	0	1	0	302040.1261	0.877865016	0.878322005	0.013514075812119997	1	26.6669617	1.18697099E-005
2	1	0	0	0	302400.1258	0.878865242	0.879199743	0.013537903575889965	1	26.6718349	1.19025217E-005
2	1	0	1	0	302760.1256	0.879865408	0.880363643	0.013430658934086348	1	26.6766701	1.1823864E-005
2	1	0	0	0	303120.1253	0.880865633	0.881336749	0.01318536696077169	1	26.6814156	1.16207484E-005
2	1	0	1	0	303480.1250	0.881865799	0.882309914	0.013177134226495912	1	26.6861591	1.16263163E-005
2	1	0	0	0	303840.1248	0.882866025	0.883263946	0.013232776357902515	1	26.6909237	1.16880346E-005
2	1	0	1	0	304200.1245	0.883866191	0.884237051	0.013134131201605519	1	26.695652	1.16136853E-005
2	1	0	0	0	304560.1242	0.884866416	0.88528651	0.012887865674514831	1	26.7002926	1.14094537E-005
2	1	0	1	0	304920.1239	0.885866582	0.886393189	0.012950642882240931	1	26.7049541	1.1479362E-005
2	1	0	0	0	305280.1237	0.886866808	0.887366295	0.012953458931870832	1	26.7096176	1.14944633E-005
2	1	0	1	0	305640.1234	0.887866974	0.888358533	0.013007413854641936	1	26.7143002	1.15552475E-005
2	1	0	0	0	306000.1231	0.888867199	0.889388859	0.012768807912258325	1	26.7188969	1.13564356E-005
2	1	0	1	0	306360.1229	0.889867365	0.890419245	0.012609783148679166	1	26.7234364	1.1227994E-005
2	1	0	0	0	306720.1226	0.890867591	0.89133513	0.012684104414243863	1	26.7280025	1.13057877E-005
2	1	0	1	0	307080.1223	0.891867757	0.892460883	0.012712367926308782	1	26.7325783	1.13452907E-005
2	1	0	0	0	307440.1221	0.892867982	0.893433988	0.012732107240814302	1	26.7371616	1.13752976E-005
2	1	0	1	0	307800.1218	0.893868148	0.894292653	0.012531057215028757	1	26.7416744	1.12064326E-005
2	1	0	0	0	308160.1215	0.894868374	0.895265758	0.012456671200852004	1	26.7461586	1.11520312E-005
2	1	0	1	0	308520.1213	0.895868599	0.896334291	0.012501193737653071	1	26.750658	1.12052485E-005
2	1	0	0	0	308880.1210	0.896868765	0.897383749	0.012542027502310871	1	26.7551727	1.12550115E-005
2	1	0	1	0	309240.1207	0.897868991	0.898356855	0.012516137630239899	1	26.7596798	1.12439584E-005
2	1	0	0	0	309600.1205	0.898869157	0.899501681	0.012277803804228188	1	26.7640991	1.1043905E-005
2	1	0	1	0	309960.1202	0.899869382	0.900360346	0.012225950162521978	1	26.7685013	1.10077608E-005
2	1	0	0	0	310320.1199	0.900869548	0.901428878	0.012236227641493708	1	26.7729053	1.10300889E-005
2	1	0	1	0	310680.1197	0.901869774	0.902363837	0.01222502956538718	1	26.7773075	1.10314249E-005
2	1	0	0	0	311040.1194	0.90286994	0.903279722	0.012173285230132752	1	26.7816887	1.09958819E-005
2	1	0	1	0	311400.1191	0.903870165	0.904329121	0.011899730949876813	1	26.7859726	1.07612732E-005
2	1	0	0	0	311760.1188	0.904870331	0.905340433	0.011812045357701778	1	26.790226	1.06939224E-005
2	1	0	1	0	312120.1186	0.905870557	0.906370819	0.011807759367330514	1	26.7944756	1.07022088E-005
2	1	0	0	0	312480.1183	0.906870723	0.907420218	0.011826834213242654	1	26.7987347	1.07319083E-005
2	1	0	1	0	312840.1180	0.907870948	0.908355176	0.011832764252716566	1	26.8029938	1.07483529E-005
2	1	0	0	0	313200.1178	0.908871114	0.909347415	0.01164843389159273	1	26.807188	1.05924737E-005
2	1	0	1	0	313560.1175	0.90987134	0.91032052	0.01144558520982919	1	26.8113079	1.04191513E-005
2	1	0	0	0	313920.1172	0.910871506	0.911350906	0.011430541481150108	1	26.8154221	1.04172341E-005
2	1	0	1	0	314280.1170	0.911871731	0.912419379	0.011432571349771589	1	26.8195381	1.04312994E-005
2	1	0	0	0	314640.1167	0.912871957	0.913239896	0.011447645621572411	1	26.8236599	1.0454447E-005
2	1	0	1	0	315000.1164	0.913872123	0.914308429	0.011420634271819108	1	26.8277702	1.04419823E-005
2	1	0	0	0	315360.1162	0.914872348	0.915262461	0.011282285203911974	1	26.8318329	1.03262519E-005
2	1	0	1	0	315720.1159	0.915872514	0.91636914	0.011044993986332685	1	26.8358078	1.01212918E-005
2	1	0	0	0	316080.1156	0.91687274	0.917304099	0.010989388978588366	1	26.8397655	1.00806119E-005
2	1	0	1	0	316440.1154	0.917872906	0.918296278	0.01099148549154863	1	26.8437214	1.00934403E-005
2	1	0	0	0	316800.1151	0.918873131	0.919479311	0.011009593084942426	1	26.8476849	1.01230935E-005
2	1	0	1	0	317160.1148	0.919873297	0.920318842	0.010992974687148799	1	26.8516426	1.01170417E-005
2	1	0	0	0	317520.1146	0.920873523	0.921406448	0.010995142288627094	1	26.8556004	1.01309952E-005
2	1	0	1	0	317880.1143	0.921873689	0.922379613	0.010960148026593952	1	26.8595467	1.01094174E-005
2	1	0	0	0	318240.1140	0.922873914	0.923333645	0.01094300814292079	1	26.8634853	1.01040478E-005
2	1	0	1	0	318600.1138	0.92387408	0.924268603	0.010895426787233181	1	26.8674088	1.0070301E-005
2	1	0	0	0	318960.1135	0.924874306	0.925337136	0.010875910028862845	1	26.8713245	1.00638836E-005
2	1	0	1	0	319320.1132	0.925874472	0.926272094	0.01059286515989083	1	26.8751373	9.81187532E-006
2	1	0	0	0	319680.1129	0.926874697	0.927378774	0.010422938511862108	1	26.8788891	9.66601237E-006
2	1	0	1	0	320040.1127	0.927874863	0.928370953	0.010405700382477984	1	26.8826351	9.66034986E-006
2	1	0	0	0	320400.1124	0.928875089	0.929382265	0.010408663780620914	1	26.8863831	9.67362757E-006
2	1	0	1	0	320760.1121	0.929875255	0.930259943	0.010378946028559266	1	26.8901196	9.65511754E-006
2	1	0	0	0	321120.1119	0.93087548	0.931404829	0.010367427091835996	1	26.8938522	9.65627169E-006
2	1	0	1	0	321480.1116	0.931875706	0.932282507	0.010330916282639623	1	26.8975697	9.63133243E-006
2	1	0	0	0	321840.1113	0.932875872	0.933446467	0.01031770886331379	1	26.9012852	9.63102866E-006
2	1	0	1	0	322200.1111	0.933876097	0.934438646	0.010272942407842614	1	26.9049835	9.59943463E-006
2	1	0	0	0	322560.1108	0.934876263	0.935316384	0.010246339783597624	1	26.9086723	9.58356941E-006
2	1	0	1	0	322920.1105	0.935876489	0.936365843	0.010226407989876136	1	26.9123535	9.57565953E-006
2	1	0	0	0	323280.1103	0.936876655	0.937358022	0.010216954883894763	1	26.9160309	9.57694465E-006
2	1	0	1	0	323640.1100	0.93787688	0.938331127	0.010132145379897622	1	26.9196796	9.50730737E-006
2	1	0	0	0	324000.1097	0.938877046	0.939266086	0.0099237953666432011	1	26.9232521	9.32108469E-006
2	1	0	1	0	324360.1095	0.939877272	0.940430045	0.0097016459998503918	1	26.9267445	9.12371979E-006
2	1	0	0	0	324720.1092	0.940877438	0.941460371	0.0096201183613405239	1	26.9302082	9.05696015E-006
2	1	0	1	0	325080.1089	0.941877663	0.942414463	0.009628559048737162	1	26.9336739	9.07409321E-006
2	1	0	0	0	325440.1087	0.942877829	0.943463862	0.0096114062093332758	1	26.9371338	9.06801415E-006
2	1	0	1	0	325800.1084	0.943878055	0.944322526	0.0096074621882408628	1	26.9405918	9.07254253E-006
2	1	0	0	0	326160.1081	0.944878221	0.945410132	0.0096178767539824295	1	26.9440556	9.0928379E-006
2	1	0	1	0	326520.1079	0.945878446	0.946459591	0.009589211475642706	1	26.9475079	9.07580124E-006
2	1	0	0	0	326880.1076	0.946878612	0.947318196	0.0095629657338424934	1	26.9509506	9.05917113E-006
2	1	0	1	0	327240.1073	0.947878838	0.948253155	0.0095153205631869631	1	26.9543743	9.02293232E-006
2	1	0	0	0	327600.1070	0.948879063	0.949340761	0.009398337315036906	1	26.9577579	8.92222488E-006
2	1	0	1	0	327960.1068	0.949879229	0.950371146	0.0092279259660032892	1	26.9610806	8.76995455E-006
2	1	0	0	0	328320.1065	0.950879455	0.951325178	0.0091413934032437694	1	26.9643707	8.69643736E-006
2	1	0	1	0	328680.1062	0.951879621	0.95227921	0.0091487294802772845	1	26.9676647	8.71214525E-006
2	1	0	0	0	329040.1060	0.952879846	0.95338589	0.0091544739434823996	1	26.9709606	8.72774672E-006
2	1	0	1	0	329400.1057	0.953880012	0.954187274	0.0090752782446968522	1	26.9742279	8.65951461E-006
2	1	0	0	0	329760.1054	0.954880238	0.95527488	0.0089018240836021972	1	26.9774323	8.50368906E-006
2	1	0	1	0	330120.1052	0.955880404	0.956343412	0.0088421189160313787	1	26.9806156	8.45610248E-006
2	1	0	0	0	330480.1049	0.956880629	0.957373798	0.0088698090000142657	1	26.9838085	8.49172284E-006
2	1	0	1	0	330840.1046	0.957880795	0.958308756	0.0088404172917858903	1	26.9869919	8.47184947E-006
2	1	0	0	0	331200.1044	0.958881021	0.959415436	0.0086622250131758172	1	26.9901104	8.31067246E-006
2	1	0	1	0	331560.1041	0.959881186	0.960407615	0.0086265728083110612	1	26.9932156	8.28502652E-006
2	1	0	0	0	331920.1038	0.960881412	0.961189926	0.008662179147140639	1	26.9963341	8.32599926E-006
2	1	0	1	0	332280.1036	0.961881578	0.962372959	0.0085439327329311782	1	26.9994087	8.22244965E-006
2	1	0	0	0	332640.1033	0.962881804	0.963307917	0.0083989677588892538	1	27.0024338	8.09079211E-006
2	1	0	1	0	333000.1030	0.963881969	0.96431917	0.0084410236805804173	1	27.0054722	8.13984116E-006
2	1	0	0	0	333360.1028	0.964882195	0.965368629	0.0084638986269231949	1	27.0085182	8.17078217E-006
2	1	0	1	0	333720.1025	0.965882421	0.966360867	0.0083221069201268316	1	27.0115147	8.0421587E-006
2	1	0	0	0	334080.1022	0.966882586	0.967391193	0.0083662859312393159	1	27.0145264	8.09347148E-006
2	1	0	1	0	334440.1020	0.967882812	0.968402505	0.0082735410695732592	1	27.0175056	8.01211809E-006
2	1	0	0	0	334800.1017	0.968882978	0.969413757	0.0081713238170186692	1	27.0204468	7.92139417E-006
2	1	0	1	0	335160.1014	0.969883204	0.970348716	0.008229041376066025	1	27.0234089	7.9850397E-006
2	1	0	0	0	335520.1011	0.970883369	0.971321881	0.0080804315246090497	1	27.0263176	7.84870008E-006
2	1	0	1	0	335880.1009	0.971883595	0.972352207	0.0080491632707065108	1	27.0292168	7.8266221E-006
2	1	0	0	0	336240.1006	0.972883761	0.973306239	0.0080880874680445553	1	27.0321274	7.87218596E-006
2	1	0	1	0	336600.1003	0.973883986	0.974279404	0.0079643558604694485	1	27.0349941	7.75950775E-006
2	1	0	0	0	336960.1001	0.974884152	0.975347877	0.0079971393536838395	1	27.0378742	7.799993E-006
2	1	0	1	0	337320.0998	0.975884378	0.976340115	0.0080679224930887139	1	27.0407791	7.8770363E-006
2	1	0	0	0	337680.0995	0.976884544	0.977332294	0.0079411386903773529	1	27.0436363	7.7611312E-006
2	1	0	1	0	338040.0993	0.977884769	0.978438973	0.0079212843139034872	1	27.0464878	7.75049284E-006
2	1	0	0	0	338400.0990	0.978884935	0.979354858	0.0079441181663690158	1	27.0493488	7.78011054E-006
2	1	0	1	0	338760.0987	0.979885161	0.980289817	0.0077928495624627813	1	27.0521545	7.63925073E-006
2	1	0	0	0	339120.0985	0.980885327	0.981339276	0.0078331052475073271	1	27.0549736	7.68693371E-006
2	1	0	1	0	339480.0982	0.981885552	0.982388735	0.007868904423133663	1	27.057806	7.73032298E-006
2	1	0	0	0	339840.0979	0.982885778	0.983399987	0.0078692492366887416	1	27.0606403	7.73861939E-006
2	1	0	1	0	340200.0977	0.983885944	0.984411299	0.0077502112489540309	1	27.0634289	7.62939544E-006
2	1	0	0	0	340560.0974	0.984886169	0.985403478	0.0077427589815686898	1	27.0662174	7.62974196E-006
2	1	0	1	0	340920.0971	0.985886335	0.986281216	0.0076754260784025405	1	27.0689812	7.57012867E-006
2	1	0	0	0	341280.0969	0.986886561	0.987311542	0.0075623136416297469	1	27.071703	7.46635942E-006
2	1	0	1	0	341640.0966	0.987886727	0.988361001	0.0075951903262400687	1	27.0744362	7.5067901E-006
2	1	0	0	0	342000.0963	0.988886952	0.989448607	0.0075444441776960636	1	27.0771523	7.46483965E-006
2	1	0	1	0	342360.0961	0.989887118	0.990364492	0.0074631469673435702	1	27.0798397	7.39123561E-006
2	1	0	0	0	342720.0958	0.990887344	0.991337597	0.0074887396828791433	1	27.0825348	7.42386919E-006
2	1	0	1	0	343080.0955	0.99188751	0.99240613	0.0073746392112414155	1	27.0851898	7.31863702E-006
2	1	0	0	0	343440.0952	0.992887735	0.993474662	0.0073893271548363046	1	27.0878506	7.34110927E-006
2	1	0	1	0	343800.0950	0.993887901	0.994447768	0.0073799654734077735	1	27.0905075	7.33899014E-006
2	1	0	0	0	344160.0947	0.994888127	0.995420933	0.0072718000480354039	1	27.0931263	7.23850189E-006
2	1	0	1	0	344520.0944	0.995888293	0.996355891	0.0072994406342700435	1	27.0957527	7.27284078E-006
2	1	0	0	0	344880.0942	0.996888518	0.997386217	0.0071913860845692562	1	27.0983429	7.17258945E-006
2	1	0	1	0	345240.0939	0.997888684	0.998225808	0.0072112717479242278	1	27.1009388	7.19847776E-006
2	1	0	0	0	345600.0936	0.99888891	0.999351561	0.0071282074068874657	1	27.1035042	7.12358542E-006
2	1	0	1	0	345960.0934	0.999889076	1.00034368	0.0071225209038513204	1	27.1060677	7.12496876E-006
2	1	0	0	0	346320.0931	1.0008893	1.00148857	0.0071502991502605112	1	27.1086426	7.16094291E-006
2	1	0	1	0	346680.0928	1.00188947	1.00242352	0.0070176587541571911	1	27.1111679	7.0346664E-006
2	1	0	0	0	347040.0926	1.00288963	1.00351119	0.0070269280641487193	1	27.113699	7.05160073E-006
2	1	0	1	0	347400.0923	1.00388992	1.00444615	0.006897154780826531	1	27.1161823	6.92782078E-006
2	1	0	0	0	347760.0920	1.00489008	1.00541925	0.0069144782026378457	1	27.1186714	6.95194967E-006
2	1	0	1	0	348120.0918	1.00589025	1.00631607	0.0069204006446657376	1	27.1211624	6.96411053E-006
2	1	0	0	0	348480.0915	1.00689042	1.00747991	0.0068362342185721084	1	27.1236229	6.88736873E-006
2	1	0	1	0	348840.0912	1.0078907	1.00841486	0.0068596311801410598	1	27.1260929	6.91735386E-006
2	1	0	0	0	349200.0910	1.00889087	1.0092926	0.0068179237758795031	1	27.1285477	6.88128011E-006
2	1	0	1	0	349560.0907	1.00989103	1.01036119	0.0067524219727257417	1	27.1309776	6.82238533E-006
2	1	0	0	0	349920.0904	1.0108912	1.01137245	0.0067522696398084614	1	27.1334095	6.82905966E-006
2	1	0	1	0	350280.0901	1.01189148	1.01232648	0.00664059160841525	1	27.1357994	6.72244687E-006
2	1	0	0	0	350640.0899	1.01289165	1.01349044	0.0066521680129412557	1	27.138195	6.74190869E-006
2	1	0	1	0	351000.0896	1.01389182	1.01431084	0.0066421052933297864	1	27.1405849	6.73715931E-006
2	1	0	0	0	351360.0893	1.01489198	1.01534128	0.0065600079863479648	1	27.1429462	6.6606467E-006
2	1	0	1	0	351720.0891	1.01589227	1.01629531	0.0065639914082161466	1	27.1453094	6.67095355E-006
2	1	0	0	0	352080.0888	1.01689243	1.01740193	0.0064718097216651394	1	27.1476402	6.5844315E-006
2	1	0	1	0	352440.0885	1.0178926	1.01833689	0.0064218100910693327	1	27.1499519	6.53956613E-006
2	1	0	0	0	352800.0883	1.01889288	1.01931	0.0064625892632185489	1	27.1522789	6.5873819E-006
2	1	0	1	0	353160.0880	1.01989305	1.02037859	0.0062545136583115196	1	27.1545296	6.38197162E-006
2	1	0	0	0	353520.0877	1.02089322	1.0213517	0.0062708529387818027	1	27.1567879	6.40474627E-006
2	1	0	1	0	353880.0875	1.02189338	1.02217221	0.0063981829067436061	1	27.15909	6.54004498E-006
2	1	0	0	0	354240.0872	1.02289367	1.02331698	0.006677268352761806	1	27.1614952	6.8329623E-006
2	1	0	1	0	354600.0869	1.02389383	1.0243665	0.0062968597407641602	1	27.1637611	6.45029195E-006
2	1	0	0	0	354960.0867	1.024894	1.02539682	0.0060883381025715611	1	27.1659527	6.24296263E-006
2	1	0	1	0	355320.0864	1.02589417	1.02644622	0.0059928747100910784	1	27.1681099	6.15136378E-006
2	1	0	0	0	355680.0861	1.02689445	1.02736211	0.0061680024496613417	1	27.170332	6.336772E-006
2	1	0	1	0	356040.0859	1.02789462	1.02827799	0.0059192350152957596	1	27.1724625	6.08661912E-006
2	1	0	0	0	356400.0856	1.02889478	1.0292511	0.0059241549615422218	1	27.1745949	6.09744302E-006
2	1	0	1	0	356760.0853	1.02989495	1.03031969	0.0060359293189551494	1	27.1767673	6.21893696E-006
2	1	0	0	0	357120.0851	1.03089523	1.03136909	0.0059313020286160638	1	27.1789036	6.11736141E-006
2	1	0	1	0	357480.0848	1.0318954	1.03243768	0.00594020125028729	1	27.1810417	6.13288739E-006
2	1	0	0	0	357840.0845	1.03289557	1.03339171	0.0060119068099987738	1	27.1832066	6.21265463E-006
2	1	0	1	0	358200.0842	1.03389573	1.03440297	0.0058709554128516944	1	27.1853199	6.0729335E-006
2	1	0	0	0	358560.0840	1.03489602	1.03549063	0.0059244266922140465	1	27.1874523	6.13468819E-006