EC-Lab ASCII FILE
Nb header lines : 73                          

Modular Potentio

Run on channel : 2 (SN 7177)
Grouped channel(s) : 2
User : 
CE vs. WE compliance from -10 V to 10 V
Electrode connection : CE to ground
Ewe ctrl range : min = 0.00 V, max = 5.00 V
Acquisition started on : 01/28/2013 19:05:19
Saved on :
	File : NCF47B_step22_260mV_hold_02.mpr
	Directory : C:\EC-Lab\Data\KEN\NCF47B\
	Host : USB
Device : VSP (SN 0345)
Address : USB
EC-Lab for windows v10.19 (software)
Internet server v10.19 (firmware)
Command interpretor v10.19 (firmware)
Electrode material : 
Initial state : 
Electrolyte : 
Comments : Li-ion 18650 1.35 A.h 
Comments : GITT 
Mass of active material : 7000.000 mg
 at x = 1.000
Molecular weight of active material (at x = 0) : 90.930 g/mol
Atomic weight of intercalated ion : 6.940 g/mol
Acquisition started at : xo = 0.900
Number of e- transfered per intercalated ion : 1
for DX = 1, DQ = 1916.936 mA.h
Battery capacity : 0.000 A.h
Electrode surface area : 0.001 cm²
Characteristic mass : 0.001 g
Record Power
Mode                1                   
tR (h:m:s)          0:00:1.0000         
dER/dt (mV/h)       0.0                 
dER (mV)            0.00                
dtR (s)             0.5000              
Es (V)              0.2600              
vs.                 Ref                 
ts (h:m:s)          24:00:0.0000        
dE/dt (mV/s)        0.000               
Ei (V)              0.0000              
vs.                 Ref                 
Ef (V)              0.0000              
vs.                 Ei                  
E range min (V)     0.000               
E range max (V)     5.000               
I Range             Auto                
Bandwidth           5                   
record              I                   
dIp                 4.000               
unit dIp            µA                  
dQp                 0.000               
unit dQp            mA.h                
dtp (s)             30.0000             
dts (s)             0.0000              
step percent        100                 
N                   1                   
dQM                 0.000               
unit dQM            mA.h                
Imax                pass                
unit Imax           mA                  
Imin                pass                
unit Imin           mA                  
goto Ns'            0                   
nc cycles           0                   

mode	ox/red	error	control changes	Ns changes	counter inc.	time/s	control/V	Ewe/V	I/mA	dQ/mA.h	P/W
2	0	0	1	0	0	XXX	0.25999999	0.274110526	0	0	0
2	0	0	1	0	0	0.0500	0.259783894	0.273709834	-0.0040917201	-2.024473134143692E-010	1.11994405E-006
2	0	0	1	0	0	0.0802	0.259783894	0.260048479	-0.0565387718	-4.0357993380489964E-008	1.47028213E-005
2	0	0	1	0	0	0.4372	0.259783894	0.260029376	-0.052504722	-5.4072763299805549E-006	1.36527697E-005
2	0	0	1	0	0	1.4358	0.259783894	0.259953082	-0.0485024825	-1.9369143666578261E-005	1.26083696E-005
2	0	0	1	0	0	3.7102	0.259783894	0.260105699	-0.0444913357	-4.8605544395002656E-005	1.15724497E-005
2	0	0	1	0	0	10.8740	0.259783894	0.259991229	-0.0404871888	-0.00013249167772101322	1.05263143E-005
2	0	0	1	0	0	40.8740	0.259783894	0.259991229	-0.0367439166	-0.00045123371487843785	9.55309588E-006
2	0	0	1	0	0	70.8740	0.259783894	0.260048479	-0.0353084579	-0.00075106378428832651	9.18191108E-006
2	0	0	1	0	0	100.8740	0.259783894	0.260029376	-0.0344863795	-0.0010417849179006299	8.96747133E-006
2	0	0	1	0	0	130.8740	0.259783894	0.259972155	-0.0340034366	-0.0013268670098176031	8.83994653E-006
2	0	0	1	0	0	160.8740	0.259783894	0.260086626	-0.0335612185	-0.0016080427042946233	8.72882447E-006
2	0	0	1	0	0	190.8740	0.259783894	0.260010302	-0.0332456231	-0.0018863241487874702	8.64420417E-006
2	0	0	1	0	0	220.8740	0.259783894	0.260029376	-0.0331024565	-0.0021624086404882321	8.60761065E-006
2	0	0	1	0	0	250.8740	0.259783894	0.260067552	-0.0328523964	-0.0024368564469901999	8.54384234E-006
2	0	0	1	0	0	280.8740	0.259783894	0.260010302	-0.0326373316	-0.002709917614517604	8.48604213E-006
2	0	0	1	0	0	310.8740	0.259783894	0.260067552	-0.0326099694	-0.002981799528558299	8.48079526E-006
2	0	0	1	0	0	340.8740	0.259783894	0.260048479	-0.0324235409	-0.0032526534186051899	8.43169255E-006
2	0	0	1	0	0	370.8740	0.259783894	0.260086626	-0.0323669091	-0.0035225915109099977	8.4182002E-006
2	0	0	1	0	0	400.8740	0.259783894	0.260010302	-0.0323026478	-0.0037916235861509989	8.39902077E-006
2	0	0	1	0	0	430.8740	0.259783894	0.260010302	-0.0321753882	-0.0040600164098299578	8.36593244E-006
2	0	0	1	0	0	460.8740	0.259783894	0.260048479	-0.0320341326	-0.0043276532036745658	8.33042759E-006
2	0	0	1	0	0	490.8740	0.259783894	0.260048479	-0.031971775	-0.004594583972345908	8.3142113E-006
2	0	0	1	0	0	520.8740	0.259783894	0.259953082	-0.031956505	-0.0048609663059865386	8.30719182E-006
2	0	0	1	0	0	550.8740	0.259783894	0.260105699	-0.0318457894	-0.0051266897983731855	8.2832712E-006
2	0	0	1	0	0	580.8740	0.259783894	0.260105699	-0.0317688026	-0.0053917436633888994	8.26324685E-006
2	0	0	1	0	0	610.8740	0.259783894	0.260067552	-0.0317070819	-0.0056562586313697975	8.24598283E-006
2	0	0	1	0	0	640.8740	0.259783894	0.260067552	-0.0316281803	-0.0059203092478806304	8.22546372E-006
2	0	0	1	0	0	670.8740	0.259783894	0.260067552	-0.0315741003	-0.0061839058335221428	8.21139929E-006
2	0	0	1	0	0	700.8740	0.259783894	0.260086626	-0.031515561	-0.0064469477259068387	8.19677552E-006
2	0	0	1	0	0	730.8740	0.259783894	0.259991229	-0.0314843841	-0.0067096003005223922	8.18566332E-006
2	0	0	1	0	0	760.8740	0.259783894	0.260029376	-0.03151365	-0.0069716859055017379	8.1944745E-006
2	0	0	1	0	0	790.8740	0.259783894	0.260048479	-0.0313564874	-0.0072332593959514831	8.15420663E-006
2	0	0	1	0	0	820.8740	0.259783894	0.260124803	-0.0312763155	-0.0074944290172555481	8.1357457E-006
2	0	0	1	0	0	850.8740	0.259783894	0.260048479	-0.0312425941	-0.0077552163243023164	8.12458893E-006
2	0	0	1	0	0	880.8740	0.259783894	0.259953082	-0.0312145967	-0.0080154972399451973	8.11433074E-006
2	0	0	1	0	0	910.8740	0.259783894	0.260029376	-0.0311560575	-0.0082752723506226006	8.10149049E-006
2	0	0	1	0	0	940.8740	0.259783894	0.26016295	-0.0311700553	-0.0085346849841906481	8.10929396E-006
2	0	0	1	0	0	970.8740	0.259783894	0.260010302	-0.0310345273	-0.0087935621821216507	8.06929711E-006
2	0	0	1	0	0	1000.8740	0.259783894	0.260105699	-0.030977264	-0.0090519171463893204	8.05736272E-006
2	0	0	1	0	0	1030.8740	0.259783894	0.260201097	-0.0309098177	-0.0093098441703243495	8.04276806E-006
2	0	0	1	0	0	1060.8740	0.259783894	0.260124803	-0.030846823	-0.0095673106762406215	8.02402337E-006
2	0	0	1	0	0	1090.8740	0.259783894	0.26016295	-0.0308010131	-0.0098243890000722992	8.01328224E-006
2	0	0	1	0	0	1120.8740	0.259783894	0.260048479	-0.0308296438	-0.01008119039601931	8.01720216E-006
2	0	0	1	0	0	1150.8740	0.259783894	0.260067552	-0.0306718461	-0.010337602952797018	7.97675239E-006
2	0	0	1	0	0	1180.8740	0.259783894	0.260029376	-0.0306985695	-0.010593498015205738	7.9825295E-006
2	0	0	1	0	0	1210.8740	0.259783894	0.2602202	-0.0306005813	-0.010849024256966646	7.96288896E-006
2	0	0	1	0	0	1240.8740	0.259783894	0.260010302	-0.0305834003	-0.01110404785666827	7.95199958E-006
2	0	0	1	0	0	1270.8740	0.259783894	0.259991229	-0.0305840392	-0.011358605053540267	7.95158212E-006
2	0	0	1	0	0	1300.8740	0.259783894	0.260048479	-0.0304994136	-0.011612898535331246	7.93132585E-006
2	0	0	1	0	0	1330.8740	0.259783894	0.260010302	-0.03041224	-0.011866694609255582	7.90749527E-006
2	0	0	1	0	0	1360.8740	0.259783894	0.260086626	-0.0303397048	-0.012120023399683802	7.89095157E-006
2	0	0	1	0	0	1390.8740	0.259783894	0.260124803	-0.0302996188	-0.012372970487469963	7.881682E-006
2	0	0	1	0	0	1420.8740	0.259783894	0.260010302	-0.0303696115	-0.012625498108778407	7.89641217E-006
2	0	0	1	0	0	1450.8740	0.259783894	0.260048479	-0.0301984493	-0.012877691871640635	7.85306111E-006
2	0	0	1	0	0	1480.8740	0.259783894	0.260067552	-0.0301812701	-0.013129424749189005	7.84916938E-006
2	0	0	1	0	0	1510.8740	0.259783894	0.260124803	-0.0300724655	-0.013380733071567853	7.82259394E-006
2	0	0	1	0	0	1540.8740	0.259783894	0.260105699	-0.0300705545	-0.013631589589865619	7.82152256E-006
2	0	0	1	0	0	1570.8740	0.259783894	0.260067552	-0.0300705545	-0.013882112354468295	7.82037569E-006
2	0	0	1	0	0	1600.8740	0.259783894	0.260105699	-0.0299700256	-0.01413223140897576	7.79537459E-006
2	0	0	1	0	0	1630.8740	0.259783894	0.260086626	-0.02993121	-0.014381978410601874	7.78470712E-006
2	0	0	1	0	0	1660.8740	0.259783894	0.260086626	-0.0299083032	-0.014631384505752163	7.77874993E-006
2	0	0	1	0	0	1690.8740	0.259783894	0.260048479	-0.0298453085	-0.014880353538297116	7.7612267E-006
2	0	0	1	0	0	1720.8740	0.259783894	0.260067552	-0.029777864	-0.015128902179137597	7.74425644E-006
2	0	0	1	0	0	1750.8740	0.259783894	0.26016295	-0.0298039522	-0.015377023129818134	7.75388435E-006
2	0	0	1	0	0	1780.8740	0.259783894	0.260143876	-0.0296722408	-0.015624780049550554	7.71905161E-006
2	0	0	1	0	0	1810.8740	0.259783894	0.260105699	-0.0297053289	-0.015872100086114782	7.72652493E-006
2	0	0	1	0	0	1840.8740	0.259783894	0.260086626	-0.0295608882	-0.016119068734810997	7.68839163E-006
2	0	0	1	0	0	1870.8740	0.259783894	0.260048479	-0.0296480618	-0.016365602439571275	7.70993302E-006
2	0	0	1	0	0	1900.8740	0.259783894	0.260048479	-0.0295093507	-0.016611675908335691	7.67386155E-006
2	0	0	1	0	0	1930.8740	0.259783894	0.26016295	-0.0294629037	-0.016857268914178842	7.66515586E-006
2	0	0	1	0	0	1960.8740	0.259783894	0.260029376	-0.0294476319	-0.017102442954094875	7.65724963E-006
2	0	0	1	0	0	1990.8739	0.259783894	0.260124803	-0.0292777438	-0.01734723744887693	7.61586716E-006
2	0	0	1	0	0	2020.8739	0.259783894	0.260010302	-0.0293509159	-0.017591733315409471	7.63154094E-006
2	0	0	1	0	0	2050.8739	0.259783894	0.260048479	-0.0292561091	-0.017835855986344833	7.60800685E-006
2	0	0	1	0	0	2080.8739	0.259783894	0.259857655	-0.0292382948	-0.01807954049097343	7.59779459E-006
2	0	0	1	0	0	2110.8739	0.259783894	0.260010302	-0.029134579	-0.01832285752964144	7.57529051E-006
2	0	0	1	0	0	2140.8739	0.259783894	0.259991229	-0.029191846	-0.018565769858940814	7.58962369E-006
2	0	0	1	0	0	2170.8739	0.259783894	0.260105699	-0.029119309	-0.01880830706988482	7.57409816E-006
2	0	0	1	0	0	2200.8739	0.259783894	0.259972155	-0.0290213227	-0.019050493732623238	7.54473604E-006
2	0	0	1	0	0	2230.8739	0.259783894	0.260048479	-0.0290162303	-0.019292348938218733	7.54562643E-006
2	0	0	1	0	0	2260.8739	0.259783894	0.260048479	-0.0289271511	-0.019533875299208383	7.5224616E-006
2	0	0	1	0	0	2290.8739	0.259783894	0.260143876	-0.0289545115	-0.019775018609964806	7.53233871E-006
2	0	0	1	0	0	2320.8739	0.259783894	0.260086626	-0.0288418867	-0.02001575552232936	7.50138906E-006
2	0	0	1	0	0	2350.8739	0.259783894	0.260048479	-0.0288018044	-0.020256113247146726	7.48986531E-006
2	0	0	1	0	0	2380.8739	0.259783894	0.260105699	-0.0287979841	-0.020496009878845679	7.49051969E-006
2	0	0	1	0	0	2410.8739	0.259783894	0.260105699	-0.028748991	-0.020735531005867655	7.47777631E-006
2	0	0	1	0	0	2440.8739	0.259783894	0.260105699	-0.0287477188	-0.020974667873309098	7.47744571E-006
2	0	0	1	0	0	2470.8739	0.259783894	0.260048479	-0.0286026429	-0.021213392323808745	7.43807368E-006
2	0	0	1	0	0	2500.8739	0.259783894	0.260124803	-0.0285988264	-0.021451723366617433	7.43926421E-006
2	0	0	1	0	0	2530.8739	0.259783894	0.260048479	-0.028556833	-0.021689640531214367	7.42616112E-006
2	0	0	1	0	0	2560.8739	0.259783894	0.260143876	-0.0284213014	-0.021927152018739946	7.39362758E-006
2	0	0	1	0	0	2590.8739	0.259783894	0.260086626	-0.0284143053	-0.022164342402673638	7.3901806E-006
2	0	0	1	0	0	2620.8739	0.259783894	0.260086626	-0.0284136683	-0.022401133178502425	7.39001507E-006
2	0	0	1	0	0	2650.8739	0.259783894	0.260067552	-0.0284219384	-0.02263759103470513	7.39162397E-006
2	0	0	1	0	0	2680.8739	0.259783894	0.260010302	-0.028353855	-0.022873767658394349	7.37229448E-006
2	0	0	1	0	0	2710.8739	0.259783894	0.260048479	-0.0282571428	-0.023109509889905549	7.34822697E-006
2	0	0	1	0	0	2740.8739	0.259783894	0.259895831	-0.0282342359	-0.023344889172464401	7.33796014E-006
2	0	0	1	0	0	2770.8739	0.259783894	0.260029376	-0.0281680617	-0.023579861501311365	7.32452372E-006
2	0	0	1	0	0	2800.8739	0.259783894	0.260105699	-0.0281858779	-0.023814465024061086	7.33130764E-006
2	0	0	1	0	0	2830.8739	0.259783894	0.259991229	-0.0281642452	-0.024048763065144835	7.3224569E-006
2	0	0	1	0	0	2860.8739	0.259783894	0.260143876	-0.0280408058	-0.024282656072596606	7.29464409E-006
2	0	0	1	0	0	2890.8739	0.259783894	0.260029376	-0.0280764382	-0.024516184857392789	7.3006986E-006
2	0	0	1	0	0	2920.8739	0.259783894	0.259953082	-0.027944088	-0.024749358637984324	7.26415192E-006
2	0	0	1	0	0	2950.8739	0.259783894	0.260067552	-0.0279001854	-0.024982099846793959	7.25593281E-006
2	0	0	1	0	0	2980.8739	0.259783894	0.260086626	-0.0278683715	-0.025214427571924922	7.24819074E-006
2	0	0	1	0	0	3010.8739	0.259783894	0.260086626	-0.0277983788	-0.025446431451741192	7.22998675E-006
2	0	0	1	0	0	3040.8739	0.259783894	0.260067552	-0.0278021991	-0.02567807909215997	7.23044968E-006
2	0	0	1	0	0	3070.8739	0.259783894	0.260105699	-0.0277309343	-0.025909410216447069	7.2129742E-006
2	0	0	1	0	0	3100.8739	0.259783894	0.259933978	-0.0277532022	-0.026140359843221495	7.21400011E-006
2	0	0	1	0	0	3130.8739	0.259783894	0.2602202	-0.0276666675	-0.026370927590632295	7.19942591E-006
2	0	0	1	0	0	3160.8739	0.259783894	0.260067552	-0.0276698489	-0.026601218222689089	7.19602986E-006
2	0	0	1	0	0	3190.8739	0.259783894	0.259933978	-0.0275222305	-0.026831104862526989	7.153963E-006
2	0	0	1	0	0	3220.8739	0.259783894	0.259991229	-0.0275782254	-0.027060601323607689	7.17009652E-006
2	0	0	1	0	0	3250.8739	0.259783894	0.259972155	-0.0274974164	-0.027289707056653789	7.14856242E-006
2	0	0	1	0	0	3280.8739	0.259783894	0.260067552	-0.0275114141	-0.027518504774056686	7.15482611E-006
2	0	0	1	0	0	3310.8739	0.259783894	0.260067552	-0.0273466166	-0.027746978739087779	7.11196753E-006
2	0	0	1	0	0	3340.8739	0.259783894	0.260124803	-0.0273224376	-0.027975142523826099	7.10724362E-006
2	0	0	1	0	0	3370.8739	0.259783894	0.260010302	-0.0272556283	-0.028202888357985352	7.08674406E-006
2	0	0	1	0	0	3400.8739	0.259783894	0.260067552	-0.0272499006	-0.028430291460360298	7.086815E-006
2	0	0	1	0	0	3430.8739	0.259783894	0.260010302	-0.0271729082	-0.028657461913150113	7.06523588E-006
2	0	0	1	0	0	3460.8739	0.259783894	0.260029376	-0.0272079073	-0.028884303554449955	7.07485515E-006
2	0	0	1	0	0	3490.8739	0.259783894	0.260067552	-0.0271398239	-0.02911076963451122	7.05818775E-006
2	0	0	1	0	0	3520.8739	0.259783894	0.260086626	-0.027132187	-0.029336965995120711	7.05671891E-006
2	0	0	1	0	0	3550.8739	0.259783894	0.260048479	-0.0270437449	-0.02956274967025593	7.03268461E-006
2	0	0	1	0	0	3580.8739	0.259783894	0.259933978	-0.0270940103	-0.02978815036570736	7.04265403E-006
2	0	0	1	0	0	3610.8739	0.259783894	0.260048479	-0.0269457567	-0.030013159190324032	7.00720284E-006
2	0	0	1	0	0	3640.8739	0.259783894	0.260105699	-0.0270214751	-0.030237845435378764	7.02843954E-006
2	0	0	1	0	0	3670.8739	0.259783894	0.260086626	-0.0269177593	-0.030462145762922242	7.00094915E-006
2	0	0	1	0	0	3700.8739	0.259783894	0.260124803	-0.0268821269	-0.030686077318322947	6.99270777E-006
2	0	0	1	0	0	3730.8739	0.259783894	0.260086626	-0.0268388614	-0.030909602992382521	6.98042868E-006
2	0	0	1	0	0	3760.8739	0.259783894	0.260143876	-0.0267446917	-0.031132739847285363	6.95746758E-006
2	0	0	1	0	0	3790.8739	0.259783894	0.260029376	-0.0267116036	-0.031355619859090279	6.94580149E-006
2	0	0	1	0	0	3820.8739	0.259783894	0.259972155	-0.0265894383	-0.031578073430818192	6.91251353E-006
2	0	0	1	0	0	3850.8739	0.259783894	0.260067552	-0.0266613364	-0.031800225973902474	6.93374841E-006
2	0	0	1	0	0	3880.8739	0.259783894	0.260105699	-0.0265741665	-0.03202208178205395	6.91209198E-006
2	0	0	1	0	0	3910.8739	0.259783894	0.260086626	-0.0265576225	-0.032243613616026526	6.90728257E-006
2	0	0	1	0	0	3940.8739	0.259783894	0.260029376	-0.0265181735	-0.032464752642880922	6.89550416E-006
2	0	0	1	0	0	3970.8739	0.259783894	0.260105699	-0.0265003555	-0.032685585922903486	6.89289345E-006
2	0	0	1	0	0	4000.8739	0.259783894	0.260048479	-0.026442457	-0.032906083677707032	6.87632064E-006
2	0	0	1	0	0	4030.8739	0.259783894	0.260048479	-0.0264150929	-0.033126254202217591	6.86920475E-006
2	0	0	1	0	0	4060.8739	0.259783894	0.260010302	-0.026345741	-0.033346023240067274	6.85016403E-006
2	0	0	1	0	0	4090.8739	0.259783894	0.260182023	-0.0263482854	-0.03356554839795807	6.85534997E-006
2	0	0	1	0	0	4120.8739	0.259783894	0.260010302	-0.0262452066	-0.033784675023209095	6.82402424E-006
2	0	0	1	0	0	4150.8739	0.259783894	0.260029376	-0.0262420252	-0.034003581298624269	6.82369728E-006
2	0	0	1	0	0	4180.8739	0.259783894	0.260086626	-0.0262382086	-0.034222112162692366	6.82420705E-006
2	0	0	1	0	0	4210.8739	0.259783894	0.260010302	-0.0262095742	-0.034440307693647011	6.81475922E-006
2	0	0	1	0	0	4240.8739	0.259783894	0.260124803	-0.0260829516	-0.034658183790135716	6.78482274E-006
2	0	0	1	0	0	4270.8739	0.259783894	0.260086626	-0.026127493	-0.034875734952856063	6.79541154E-006
2	0	0	1	0	0	4300.8739	0.259783894	0.260067552	-0.0259964187	-0.035092963127885429	6.76082482E-006
2	0	0	1	0	0	4330.8739	0.259783894	0.260067552	-0.0260689538	-0.035309907625099335	6.7796891E-006
2	0	0	1	0	0	4360.8739	0.259783894	0.260048479	-0.0260116905	-0.035526550001222741	6.76430045E-006
2	0	0	1	0	0	4390.8739	0.259783894	0.260086626	-0.0259779673	-0.035742919081329268	6.756522E-006
2	0	0	1	0	0	4420.8739	0.259783894	0.259953082	-0.0259067025	-0.035959009510349894	6.73452723E-006
2	0	0	1	0	0	4450.8739	0.259783894	0.260010302	-0.0258780681	-0.036174772466870231	6.72856413E-006
2	0	0	1	0	0	4480.8739	0.259783894	0.260067552	-0.0258837957	-0.036390214779176026	6.73153545E-006
2	0	0	1	0	0	4510.8739	0.259783894	0.260086626	-0.0257692635	-0.036605323466715717	6.70224063E-006
2	0	0	1	0	0	4540.8739	0.259783894	0.260010302	-0.0257431772	-0.036820170243359381	6.69349129E-006
2	0	0	1	0	0	4570.8739	0.259783894	0.260086626	-0.025702456	-0.037034870331381968	6.68486518E-006
2	0	0	1	0	0	4600.8739	0.259783894	0.260010302	-0.0257380884	-0.037249333043733506	6.69216797E-006
2	0	0	1	0	0	4630.8739	0.259783894	0.259972155	-0.0257380884	-0.037463587099439255	6.69118617E-006
2	0	0	1	0	0	4660.8739	0.259783894	0.26016295	-0.0256655514	-0.037677739764094144	6.67722543E-006
2	0	0	1	0	0	4690.8739	0.259783894	0.260258347	-0.0256674606	-0.037891336950844255	6.68017083E-006
2	0	0	1	0	0	4720.8739	0.259783894	0.260029376	-0.0255815592	-0.038104529066159597	6.65195694E-006
2	0	0	1	0	0	4750.8739	0.259783894	0.259972155	-0.0254823025	-0.038317448668803711	6.62468892E-006
2	0	0	1	0	0	4780.8739	0.259783894	0.260010302	-0.0255198404	-0.038529995447001524	6.63542141E-006
2	0	0	1	0	0	4810.8739	0.259783894	0.260067552	-0.0254523959	-0.038742248904747062	6.61934246E-006
2	0	0	1	0	0	4840.8739	0.259783894	0.259876758	-0.0253467709	-0.038954114223423313	6.58703675E-006
2	0	0	1	0	0	4870.8739	0.259783894	0.260124803	-0.0252856892	-0.039165611789603302	6.57743476E-006
2	0	0	1	0	0	4900.8739	0.259783894	0.260048479	-0.0253811311	-0.03937679153301598	6.60032447E-006
2	0	0	1	0	0	4930.8739	0.259783894	0.260067552	-0.0252856892	-0.039587751960298047	6.5759873E-006
2	0	0	1	0	0	4960.8739	0.259783894	0.260067552	-0.0252055153	-0.03979834376224068	6.55513668E-006
2	0	0	1	0	0	4990.8739	0.259783894	0.260086626	-0.0252277851	-0.040008595603030175	6.56140946E-006
2	0	0	1	0	0	5020.8739	0.259783894	0.260086626	-0.0252016988	-0.040218598888561649	6.55462463E-006
2	0	0	1	0	0	5050.8739	0.259783894	0.260048479	-0.0250992551	-0.040428235804127945	6.52702329E-006
2	0	0	1	0	0	5080.8739	0.259783894	0.260010302	-0.0250381734	-0.040637530760070928	6.51018308E-006
2	0	0	1	0	0	5110.8739	0.259783894	0.259972155	-0.0249567255	-0.040846482778978434	6.48805371E-006
2	0	0	1	0	0	5140.8739	0.259783894	0.260029376	-0.0250801686	-0.041055073542970645	6.52158042E-006
2	0	0	1	0	0	5170.8739	0.259783894	0.26016295	-0.025017811	-0.041263354795555582	6.50870743E-006
2	0	0	1	0	0	5200.8739	0.259783894	0.260143876	-0.0249325484	-0.041471326611927192	6.48604964E-006
2	0	0	1	0	0	5230.8739	0.259783894	0.26016295	-0.024920458	-0.041679065596422184	6.48337982E-006
2	0	0	1	0	0	5260.8739	0.259783894	0.259953082	-0.0249389112	-0.041886545034049288	6.4829469E-006
2	0	0	1	0	0	5290.8739	0.259783894	0.260105699	-0.0248059276	-0.042093561372452723	6.45216323E-006
2	0	0	1	0	0	5320.8739	0.259783894	0.260029376	-0.0247753859	-0.042300339037415466	6.44232796E-006
2	0	0	1	0	0	5350.8739	0.259783894	0.26016295	-0.0247569345	-0.042506853010187549	6.4408373E-006
2	0	0	1	0	0	5380.8739	0.259783894	0.260105699	-0.0247652065	-0.042713026040630521	6.44157126E-006
2	0	0	1	0	0	5410.8739	0.259783894	0.260067552	-0.0246315859	-0.042918831730781537	6.40587632E-006
2	0	0	1	0	0	5440.8739	0.259783894	0.259953082	-0.0245984998	-0.043124320610529121	6.3944558E-006
2	0	0	1	0	0	5470.8739	0.259783894	0.260143876	-0.0246398561	-0.04332952551726614	6.40990766E-006
2	0	0	1	0	0	5500.8739	0.259783894	0.259953082	-0.0245883167	-0.043534463184238932	6.39180871E-006
2	0	0	1	0	0	5530.8739	0.259783894	0.259953082	-0.0245049652	-0.043739097882194135	6.37014136E-006
2	0	0	1	0	0	5560.8739	0.259783894	0.259972155	-0.0244311541	-0.043943447583580181	6.35141987E-006
2	0	0	1	0	0	5590.8739	0.259783894	0.260029376	-0.0244044308	-0.044147408243424779	6.34586877E-006
2	0	0	1	0	0	5620.8739	0.259783894	0.260201097	-0.0244311541	-0.044350966331799517	6.35701326E-006
2	0	0	1	0	0	5650.8739	0.259783894	0.26016295	-0.024342712	-0.04455422714954594	6.33307172E-006
2	0	0	1	0	0	5680.8739	0.259783894	0.260124803	-0.024350984	-0.044757200224570311	6.33429499E-006
2	0	0	1	0	0	5710.8739	0.259783894	0.260143876	-0.0243363474	-0.044959850281841636	6.33095169E-006
2	0	0	1	0	0	5740.8739	0.259783894	0.260143876	-0.024229452	-0.045162144711095427	6.30314344E-006
2	0	0	1	0	0	5770.8739	0.259783894	0.260105699	-0.0241804589	-0.045364157121264168	6.2894751E-006
2	0	0	1	0	0	5800.8739	0.259783894	0.260048479	-0.0242256355	-0.0455658695433264	6.2998397E-006
2	0	0	1	0	0	5830.8739	0.259783894	0.26016295	-0.0241550058	-0.045767316275574475	6.28423777E-006
2	0	0	1	0	0	5860.8739	0.259783894	0.260067552	-0.0241422821	-0.04596843365066592	6.27862437E-006
2	0	0	1	0	0	5890.8739	0.259783894	0.260143876	-0.0240627453	-0.046169309801907796	6.259776E-006
2	0	0	1	0	0	5920.8739	0.259783894	0.259972155	-0.0240290221	-0.046369869429558203	6.24687664E-006
2	0	0	1	0	0	5950.8739	0.259783894	0.260124803	-0.0240659267	-0.046570181510727338	6.26014435E-006
2	0	0	1	0	0	5980.8739	0.259783894	0.259933978	-0.0240302943	-0.046770184635678926	6.24629001E-006
2	0	0	1	0	0	6010.8739	0.259783894	0.260124803	-0.0239163991	-0.046969963862238867	6.22124844E-006
2	0	0	1	0	0	6040.8739	0.259783894	0.260124803	-0.0239030384	-0.047169434595110721	6.21777326E-006
2	0	0	1	0	0	6070.8739	0.259783894	0.260086626	-0.0239793919	-0.047368661326231333	6.23671895E-006
2	0	0	1	0	0	6100.8739	0.259783894	0.260067552	-0.0238012318	-0.047567544642767558	6.18992817E-006
2	0	0	1	0	0	6130.8739	0.259783894	0.260086626	-0.0238814037	-0.047766162346916066	6.21123354E-006
2	0	0	1	0	0	6160.8739	0.259783894	0.260067552	-0.0238171387	-0.047964458622483018	6.19406501E-006
2	0	0	1	0	0	6190.8739	0.259783894	0.260048479	-0.0236943364	-0.048162499103817466	6.16167608E-006
2	0	0	1	0	0	6220.8739	0.259783894	0.260029376	-0.0237299688	-0.048360352081452597	6.17048909E-006
2	0	0	1	0	0	6250.8739	0.259783894	0.260048479	-0.0237255134	-0.048557965857802581	6.16978377E-006
2	0	0	1	0	0	6280.8739	0.259783894	0.260124803	-0.0237433314	-0.048755881865360874	6.17622936E-006
2	0	0	1	0	0	6310.8739	0.259783894	0.260048479	-0.0237846877	-0.048953971768252759	6.18517197E-006
2	0	0	1	0	0	6340.8739	0.259783894	0.260086626	-0.0237185154	-0.049151436864332196	6.16886882E-006
2	0	0	1	0	0	6370.8739	0.259783894	0.259953082	-0.0237490591	-0.049349622708727399	6.17364094E-006
2	0	0	1	0	0	6400.8739	0.259783894	0.260029376	-0.0236860663	-0.049547223233627882	6.15907311E-006
2	0	0	1	0	0	6430.8739	0.259783894	0.260124803	-0.0236765202	-0.049744276508381174	6.15885028E-006
2	0	0	1	0	0	6460.8739	0.259783894	0.259991229	-0.0235556252	-0.049941006775067083	6.12425583E-006
2	0	0	1	0	0	6490.8739	0.259783894	0.260201097	-0.0235238131	-0.050137456322988598	6.12092208E-006
2	0	0	1	0	0	6520.8739	0.259783894	0.260143876	-0.0234302785	-0.050333625444445654	6.09524341E-006
2	0	0	1	0	0	6550.8739	0.259783894	0.259972155	-0.0234945416	-0.050529365658471465	6.10792677E-006
2	0	0	1	0	0	6580.8739	0.259783894	0.260067552	-0.0234080087	-0.050724634881319688	6.08766368E-006
2	0	0	1	0	0	6610.8739	0.259783894	0.260029376	-0.0233443808	-0.050919474660105796	6.07022457E-006
2	0	0	1	0	0	6640.8739	0.259783894	0.26016295	-0.0233182907	-0.051113844078736377	6.06655522E-006
2	0	0	1	0	0	6670.8739	0.259783894	0.260105699	-0.0232801139	-0.051307888871866381	6.05529021E-006
2	0	0	1	0	0	6700.8739	0.259783894	0.260029376	-0.0232858397	-0.051501657524865532	6.05500236E-006
2	0	0	1	0	0	6730.8739	0.259783894	0.260067552	-0.0231515858	-0.051695075153535025	6.02097634E-006
2	0	0	1	0	0	6760.8739	0.259783894	0.260010302	-0.0231865812	-0.051888210211477964	6.02874979E-006
2	0	0	1	0	0	6790.8739	0.259783894	0.260029376	-0.0231515858	-0.052081068491565893	6.02009231E-006
2	0	0	1	0	0	6820.8739	0.259783894	0.260086626	-0.0231178608	-0.052273615700557621	6.01264628E-006
2	0	0	1	0	0	6850.8739	0.259783894	0.260086626	-0.0230650492	-0.052465892414531978	5.99891064E-006
2	0	0	1	0	0	6880.8739	0.259783894	0.260124803	-0.0230612326	-0.052657877706815799	5.99879877E-006
2	0	0	1	0	0	6910.8739	0.259783894	0.260010302	-0.0229886938	-0.052849560959160123	5.97729741E-006
2	0	0	1	0	0	6940.8739	0.259783894	0.260010302	-0.0229339749	-0.053041001027578485	5.96306973E-006
2	0	0	1	0	0	6970.8739	0.259783894	0.260067552	-0.0229988769	-0.05323214307832428	5.98126144E-006
2	0	0	1	0	0	7000.8739	0.259783894	0.260124803	-0.0229193401	-0.053423023907064049	5.96188875E-006
2	0	0	1	0	0	7030.8739	0.259783894	0.260124803	-0.0228932519	-0.053613559221257247	5.95510255E-006
2	0	0	1	0	0	7060.8739	0.259783894	0.260201097	-0.0228238981	-0.053803836439694691	5.9388035E-006
2	0	0	1	0	0	7090.8739	0.259783894	0.260086626	-0.0227857213	-0.053993865626595188	5.92626157E-006
2	0	0	1	0	0	7120.8739	0.259783894	0.260105699	-0.0227812678	-0.054183651270034001	5.92553761E-006
2	0	0	1	0	0	7150.8739	0.259783894	0.260067552	-0.0227513611	-0.054373152262933759	5.91689059E-006
2	0	0	1	0	0	7180.8739	0.259783894	0.260029376	-0.0226196498	-0.054562375743745312	5.88177363E-006
2	0	0	1	0	0	7210.8739	0.259783894	0.260067552	-0.0226266496	-0.054751291401804736	5.88445755E-006
2	0	0	1	0	0	7240.8739	0.259783894	0.260067552	-0.022701731	-0.054939931084292938	5.90398349E-006
2	0	0	1	0	0	7260.5747	0.259783894	0.260029376	-0.0226743706	-0.055063636384971443	5.89600222E-006