EC-Lab ASCII FILE
Nb header lines : 69                          

Galvanostatic Cycling with Potential Limitation

Run on channel : 3 (SN 7211)
Grouped channel(s) : 3
User : 
CE vs. WE compliance from -10 V to 10 V
Electrode connection : CE to ground
Ewe ctrl range : min = 0.00 V, max = 5.00 V
Acquisition started on : 09/27/2012 19:26:35
Saved on :
	File : 20120927_NCF44A_insitu1_03.mpr
	Directory : C:\EC-Lab\Data\Chris\
	Host : USB
Device : VSP (SN 0345)
Address : USB
EC-Lab for windows v10.19 (software)
Internet server v10.19 (firmware)
Command interpretor v10.19 (firmware)
Electrode material : Carbon Fibre
Initial state : 
Electrolyte : 1:1 EC:DMC
Comments : 2.0 mg NCF
Mass of active material : 2.000 mg
 at x = 1.000
Molecular weight of active material (at x = 0) : 72.000 g/mol
Atomic weight of intercalated ion : 6.940 g/mol
Acquisition started at : xo = 0.000
Number of e- transfered per intercalated ion : 1
for DX = 1, DQ = 0.679 mA.h
Battery capacity : 0.000 A.h
Electrode surface area : 0.001 cm²
Characteristic mass : 0.001 g
Record Power
Ns                  0                   1                   2                   
Set I/C             I                   I                   I                   
Is                  0.000               -100.500            100.500             
unit Is             mA                  µA                  µA                  
vs.                 <None>              <None>              <None>              
N                   1                   1                   1                   
I sign              > 0                 > 0                 > 0                 
t1 (h:m:s)          0:00:0.0000         50:00:0.0000        50:00:0.0000        
I Range             1 mA                1 mA                1 mA                
Bandwidth           5                   5                   5                   
dE1 (mV)            0.00                5.00                5.00                
dt1 (s)             0.0000              30.0000             30.0000             
EM (V)              0.000               0.000               2.000               
tM (h:m:s)          0:00:0.0000         0:00:0.0000         0:00:0.0000         
Im                  0.000               0.000               0.000               
unit Im             mA                  mA                  mA                  
E range min (V)     0.000               0.000               0.000               
E range max (V)     5.000               5.000               5.000               
dq                  0.000               1.000               1.000               
unit dq             mA.h                mA.h                mA.h                
dtq (s)             0.0000              120.0000            120.0000            
dQM                 0.000               0.000               0.000               
unit dQM            mA.h                mA.h                mA.h                
dxM                 0.000               0.000               0.000               
tR (h:m:s)          0:10:10.0000        0:20:0.0000         0:20:0.0000         
dER/dt (mV/h)       0.0                 0.0                 0.0                 
dER (mV)            0.00                5.00                5.00                
dtR (s)             10.0000             30.0000             30.0000             
EL (V)              pass                pass                pass                
goto Ns'            0                   0                   1                   
nc cycles           0                   0                   10                  

mode	ox/red	error	control changes	Ns changes	counter inc.	time/s	control/V/mA	Ewe/V	dq/mA.h	P/W	<I>/mA	(Q-Qo)/mA.h	x
3	1	1	0	0	0	0.0000	0	1.6502974	0	0	0	0	0
3	1	0	0	0	0	10.0000	0	1.64997292	0	0	0	0	0
3	1	0	0	0	0	20.0000	0	1.64962935	0	0	0	0	0
3	1	0	0	0	0	30.0000	0	1.64922857	0	0	0	0	0
3	1	0	0	0	0	40.0000	0	1.6489805	0	0	0	0	0
3	1	0	0	0	0	50.0000	0	1.64857972	0	0	0	0	0
3	1	0	0	0	0	60.0000	0	1.64821708	0	0	0	0	0
3	1	0	0	0	0	70.0000	0	1.64789271	0	0	0	0	0
3	1	0	0	0	0	80.0000	0	1.64745367	0	0	0	0	0
3	1	0	0	0	0	90.0000	0	1.64722466	0	0	0	0	0
3	1	0	0	0	0	100.0000	0	1.6468811	0	0	0	0	0
3	1	0	0	0	0	110.0000	0	1.64659488	0	0	0	0	0
3	1	0	0	0	0	120.0000	0	1.64613688	0	0	0	0	0
3	1	0	0	0	0	130.0000	0	1.64592695	0	0	0	0	0
3	1	0	0	0	0	140.0000	0	1.64552617	0	0	0	0	0
3	1	0	0	0	0	150.0000	0	1.64518261	0	0	0	0	0
3	1	0	0	0	0	160.0000	0	1.64497268	0	0	0	0	0
3	1	0	0	0	0	170.0000	0	1.64443827	0	0	0	0	0
3	1	0	0	0	0	180.0000	0	1.64403749	0	0	0	0	0
3	1	0	0	0	0	190.0000	0	1.643713	0	0	0	0	0
3	1	0	0	0	0	200.0000	0	1.64335048	0	0	0	0	0
3	1	0	0	0	0	210.0000	0	1.6431787	0	0	0	0	0
3	1	0	0	0	0	220.0000	0	1.64277792	0	0	0	0	0
3	1	0	0	0	0	230.0000	0	1.64241529	0	0	0	0	0
3	1	0	0	0	0	240.0000	0	1.64216721	0	0	0	0	0
3	1	0	0	0	0	250.0000	0	1.64172816	0	0	0	0	0
3	1	0	0	0	0	260.0000	0	1.64151824	0	0	0	0	0
3	1	0	0	0	0	270.0000	0	1.6409266	0	0	0	0	0
3	1	0	0	0	0	280.0000	0	1.64079309	0	0	0	0	0
3	1	0	0	0	0	290.0000	0	1.6403923	0	0	0	0	0
3	1	0	0	0	0	300.0000	0	1.64002967	0	0	0	0	0
3	1	0	0	0	0	310.0000	0	1.63968611	0	0	0	0	0
3	1	0	0	0	0	320.0000	0	1.63924718	0	0	0	0	0
3	1	0	0	0	0	330.0000	0	1.63890362	0	0	0	0	0
3	1	0	0	0	0	340.0000	0	1.63848376	0	0	0	0	0
3	1	0	0	0	0	350.0000	0	1.63819754	0	0	0	0	0
3	1	0	0	0	0	360.0000	0	1.63789213	0	0	0	0	0
3	1	0	0	0	0	370.0000	0	1.63752949	0	0	0	0	0
3	1	0	0	0	0	380.0000	0	1.63720512	0	0	0	0	0
3	1	0	0	0	0	390.0000	0	1.63680434	0	0	0	0	0
3	1	0	0	0	0	400.0000	0	1.636289	0	0	0	0	0
3	1	0	0	0	0	410.0000	0	1.63607907	0	0	0	0	0
3	1	0	0	0	0	420.0000	0	1.63569736	0	0	0	0	0
3	1	0	0	0	0	430.0000	0	1.63531566	0	0	0	0	0
3	1	0	0	0	0	440.0000	0	1.6348958	0	0	0	0	0
3	1	0	0	0	0	450.0000	0	1.63462865	0	0	0	0	0
3	1	0	0	0	0	460.0000	0	1.63407516	0	0	0	0	0
3	1	0	0	0	0	470.0000	0	1.63392246	0	0	0	0	0
3	1	0	0	0	0	480.0000	0	1.63354075	0	0	0	0	0
3	1	0	0	0	0	490.0000	0	1.63319719	0	0	0	0	0
3	1	0	0	0	0	500.0000	0	1.63287282	0	0	0	0	0
3	1	0	0	0	0	510.0000	0	1.63249111	0	0	0	0	0
3	1	0	0	0	0	520.0000	0	1.63212848	0	0	0	0	0
3	1	0	0	0	0	530.0000	0	1.63178492	0	0	0	0	0
3	1	0	0	0	0	540.0000	0	1.63130784	0	0	0	0	0
3	1	0	0	0	0	550.0000	0	1.63092613	0	0	0	0	0
3	1	0	0	0	0	560.0000	0	1.63060164	0	0	0	0	0
3	1	0	0	0	0	570.0000	0	1.63020086	0	0	0	0	0
3	1	0	0	0	0	580.0000	0	1.62993371	0	0	0	0	0
3	1	0	0	0	0	590.0000	0	1.62945652	0	0	0	0	0
3	1	0	0	0	0	591.4322	0	1.62949479	0	0	0	0	0